Date,Open,High,Low,Close,Volume,Currency
2016-01-03,72.0,72.21,71.23,72.08,288250,USD
2016-01-04,71.27,71.99,71.0,71.67,323753,USD
2016-01-05,70.7,71.59,70.36,71.18,389854,USD
2016-01-06,70.02,70.71,69.6,69.76,321622,USD
2016-01-07,69.96,70.63,69.67,69.88,565025,USD
2016-01-10,69.93,70.36,69.07,69.82,311997,USD
2016-01-11,70.31,70.92,69.33,69.84,286698,USD
2016-01-12,70.13,70.83,68.89,68.91,380236,USD
2016-01-13,69.1,69.18,68.13,68.75,439129,USD
2016-01-14,67.52,68.26,67.0,68.07,344339,USD
2016-01-18,68.85,68.85,67.3,68.12,221888,USD
2016-01-19,67.35,68.41,66.33,67.83,252972,USD
2016-01-20,67.9,68.34,66.69,66.7,323094,USD
2016-01-21,67.48,68.32,67.19,68.25,252625,USD
2016-01-24,67.67,67.76,66.64,66.86,330452,USD
2016-01-25,67.64,70.62,67.57,70.49,582235,USD
2016-01-26,70.24,71.65,69.72,70.25,491105,USD
2016-01-27,70.82,71.32,70.41,70.67,420848,USD
2016-01-28,70.86,72.91,70.86,72.9,796075,USD
2016-01-31,72.29,72.69,71.59,72.31,284729,USD
2016-02-01,71.48,71.78,70.8,71.32,325743,USD
2016-02-02,71.81,73.17,70.58,73.15,433060,USD
2016-02-03,73.01,73.72,71.88,72.24,365634,USD
2016-02-04,72.98,74.66,70.48,71.12,281883,USD
2016-02-07,70.56,73.06,69.88,73.03,522006,USD
2016-02-08,72.49,75.27,72.3,74.41,581191,USD
2016-02-09,74.68,75.53,73.45,74.19,362692,USD
2016-02-10,73.19,75.02,73.19,74.32,527049,USD
2016-02-11,74.82,75.65,73.7,75.3,306716,USD
2016-02-15,76.05,76.19,73.47,73.95,386770,USD
2016-02-16,74.25,74.67,73.17,73.37,374212,USD
2016-02-17,73.5,73.75,72.98,73.3,260379,USD
2016-02-18,73.3,73.76,71.56,72.88,700703,USD
2016-02-21,73.47,73.88,72.44,72.8,387394,USD
2016-02-22,72.85,73.02,72.05,72.87,264947,USD
2016-02-23,72.42,74.12,72.22,73.91,220169,USD
2016-02-24,74.0,74.39,73.48,74.34,208733,USD
2016-02-25,74.78,74.95,73.31,73.33,159440,USD
2016-02-28,73.5,74.38,72.98,73.71,213029,USD
2016-02-29,74.04,75.08,73.75,74.5,233104,USD
2016-03-01,74.39,74.83,73.82,74.41,154824,USD
2016-03-02,74.35,75.25,73.81,75.2,354469,USD
2016-03-03,75.2,76.1,75.14,76.0,299636,USD
2016-03-06,75.87,76.42,75.09,75.72,216147,USD
2016-03-07,75.72,76.13,75.12,75.79,236796,USD
2016-03-08,75.95,76.53,75.1,75.85,313314,USD
2016-03-09,76.28,76.81,75.13,75.37,266652,USD
2016-03-10,75.51,76.2,75.51,75.78,239224,USD
2016-03-13,75.78,76.2,74.88,75.24,285985,USD
2016-03-14,74.78,76.5,74.04,76.16,365278,USD
2016-03-15,75.78,76.83,75.53,76.55,188847,USD
2016-03-16,76.84,77.76,76.51,77.26,304332,USD
2016-03-17,76.95,77.58,76.17,76.89,611749,USD
2016-03-20,76.99,77.99,76.82,77.38,212040,USD
2016-03-21,77.0,78.42,76.64,78.07,241496,USD
2016-03-22,77.96,78.89,76.99,78.14,253247,USD
2016-03-23,77.93,77.99,76.86,77.39,207598,USD
2016-03-27,77.68,78.37,77.45,78.31,320277,USD
2016-03-28,77.94,78.71,77.38,78.51,624428,USD
2016-03-29,78.78,79.04,78.06,78.73,294197,USD
2016-03-30,78.83,79.02,78.2,78.41,373437,USD
2016-03-31,78.03,79.16,77.82,79.09,193949,USD
2016-04-03,79.23,79.67,78.71,78.91,176984,USD
2016-04-04,78.32,78.78,77.5,77.74,218688,USD
2016-04-05,77.74,78.19,76.66,77.98,250278,USD
2016-04-06,77.64,77.64,76.86,77.35,219097,USD
2016-04-07,77.85,77.85,77.04,77.36,178611,USD
2016-04-10,77.97,78.17,77.16,77.36,171759,USD
2016-04-11,77.47,77.7,76.97,77.59,201009,USD
2016-04-12,78.03,78.23,76.87,78.19,172494,USD
2016-04-13,78.36,78.57,77.98,78.45,211892,USD
2016-04-14,78.42,79.3,78.16,79.25,246953,USD
2016-04-17,79.0,79.66,78.93,79.63,221108,USD
2016-04-18,79.9,80.32,79.26,79.45,304845,USD
2016-04-19,79.72,79.93,79.16,79.77,188876,USD
2016-04-20,79.61,80.03,78.43,78.58,218635,USD
2016-04-21,78.62,79.79,78.62,79.68,238557,USD
2016-04-24,78.94,79.42,78.75,79.02,266797,USD
2016-04-25,79.32,80.0,78.74,79.93,234407,USD
2016-04-26,79.89,80.36,79.54,79.96,303245,USD
2016-04-27,79.75,80.32,79.0,79.29,575588,USD
2016-04-28,77.22,77.96,75.71,76.0,777825,USD
2016-05-01,75.78,77.33,75.65,76.85,478927,USD
2016-05-02,76.39,76.5,75.6,75.75,836239,USD
2016-05-03,75.25,75.9,75.01,75.56,574151,USD
2016-05-04,75.54,76.48,75.12,76.06,307208,USD
2016-05-05,76.0,76.55,75.72,76.28,222368,USD
2016-05-08,76.17,76.81,75.66,76.55,365705,USD
2016-05-09,76.73,77.3,76.31,77.08,196560,USD
2016-05-10,77.07,77.67,76.68,76.83,251849,USD
2016-05-11,77.32,77.98,77.08,77.63,219852,USD
2016-05-12,77.34,77.34,76.51,76.97,203255,USD
2016-05-15,77.08,77.79,76.63,77.4,169912,USD
2016-05-16,77.26,77.42,75.24,75.4,447172,USD
2016-05-17,75.12,76.09,74.83,75.25,337386,USD
2016-05-18,74.76,75.48,74.16,74.85,253189,USD
2016-05-19,75.31,75.78,74.97,75.33,301941,USD
2016-05-22,75.49,75.63,74.73,74.79,220478,USD
2016-05-23,75.24,76.56,75.15,76.38,257894,USD
2016-05-24,76.35,76.86,76.08,76.35,173419,USD
2016-05-25,76.52,76.76,75.96,76.43,140285,USD
2016-05-26,76.52,77.19,76.18,77.14,246482,USD
2016-05-30,77.22,77.54,76.83,77.26,267651,USD
2016-05-31,76.86,77.21,76.07,77.21,194593,USD
2016-06-01,77.15,77.35,76.79,77.35,222604,USD
2016-06-02,77.57,77.79,76.94,77.2,145166,USD
2016-06-05,77.31,78.03,76.79,77.09,184756,USD
2016-06-06,77.03,77.91,77.03,77.49,170102,USD
2016-06-07,77.59,78.55,77.12,77.72,128112,USD
2016-06-08,77.4,77.87,77.18,77.79,123444,USD
2016-06-09,77.4,78.2,77.4,78.2,274955,USD
2016-06-12,77.75,78.08,76.62,76.78,261784,USD
2016-06-13,76.83,76.96,76.1,76.44,246083,USD
2016-06-14,76.5,76.96,76.06,76.32,213264,USD
2016-06-15,76.06,76.94,75.66,76.5,285368,USD
2016-06-16,76.22,76.6,75.79,76.35,351289,USD
2016-06-19,77.18,77.98,77.18,77.62,141003,USD
2016-06-20,77.62,78.22,77.47,77.68,213380,USD
2016-06-21,77.91,78.31,77.62,78.31,162888,USD
2016-06-22,79.08,80.14,79.08,80.14,368830,USD
2016-06-23,77.2,78.1,76.54,76.75,461590,USD
2016-06-26,75.93,75.97,74.27,74.6,328148,USD
2016-06-27,74.9,75.69,74.53,75.69,216686,USD
2016-06-28,76.55,76.95,75.95,76.72,197974,USD
2016-06-29,76.96,79.15,76.76,79.13,395905,USD
2016-06-30,78.99,79.73,78.5,79.17,169376,USD
2016-07-04,78.85,79.1,77.8,78.72,207013,USD
2016-07-05,78.66,78.82,77.97,78.74,192254,USD
2016-07-06,78.89,79.33,78.28,78.49,155693,USD
2016-07-07,79.27,79.85,79.1,79.79,132255,USD
2016-07-10,80.08,80.47,79.88,80.2,144527,USD
2016-07-11,80.75,81.17,80.36,80.41,143824,USD
2016-07-12,80.77,80.92,80.08,80.23,188048,USD
2016-07-13,80.8,81.0,79.86,80.19,134064,USD
2016-07-14,80.11,80.63,79.92,79.92,164485,USD
2016-07-17,79.92,80.54,79.58,79.91,93430,USD
2016-07-18,79.86,80.09,79.22,79.62,87142,USD
2016-07-19,79.56,80.72,79.56,80.3,191179,USD
2016-07-20,80.06,80.57,79.73,79.94,132491,USD
2016-07-21,79.92,80.79,79.91,80.46,140892,USD
2016-07-24,80.04,80.4,79.8,79.95,235022,USD
2016-07-25,79.88,80.72,79.88,80.3,185172,USD
2016-07-26,80.74,80.74,79.28,79.72,321293,USD
2016-07-27,79.71,79.99,78.97,79.38,239102,USD
2016-07-28,79.92,81.5,77.11,78.18,730458,USD
2016-07-31,78.14,78.14,77.0,77.34,302645,USD
2016-08-01,77.23,77.23,75.94,76.61,406601,USD
2016-08-02,76.71,76.97,76.25,76.62,213538,USD
2016-08-03,76.74,77.49,76.54,76.78,172619,USD
2016-08-04,77.3,77.32,76.45,76.59,217924,USD
2016-08-07,76.71,77.59,75.99,76.17,185100,USD
2016-08-08,76.26,76.59,75.72,75.98,153013,USD
2016-08-09,76.07,76.33,75.84,76.22,132964,USD
2016-08-10,76.58,76.86,75.87,76.1,193328,USD
2016-08-11,75.99,76.1,75.35,75.58,99160,USD
2016-08-14,75.87,76.08,75.48,75.5,102963,USD
2016-08-15,75.59,75.64,75.08,75.16,186232,USD
2016-08-16,75.22,75.82,75.01,75.79,179416,USD
2016-08-17,75.8,76.83,75.62,76.83,220878,USD
2016-08-18,76.46,76.99,76.24,76.78,209431,USD
2016-08-21,76.77,77.22,76.4,77.1,144561,USD
2016-08-22,77.41,77.93,77.27,77.34,312412,USD
2016-08-23,77.22,77.74,77.22,77.58,185908,USD
2016-08-24,77.43,78.54,77.43,78.07,219465,USD
2016-08-25,78.05,79.07,78.05,78.47,376215,USD
2016-08-28,78.5,79.06,78.5,78.78,163423,USD
2016-08-29,78.78,79.12,78.59,78.69,198864,USD
2016-08-30,78.54,78.79,77.96,77.98,279706,USD
2016-08-31,78.12,78.3,77.49,77.97,209862,USD
2016-09-01,78.47,79.18,78.1,79.16,252956,USD
2016-09-05,79.44,79.81,78.92,79.46,237696,USD
2016-09-06,79.18,80.37,79.18,80.29,316150,USD
2016-09-07,80.52,80.55,79.17,79.21,281305,USD
2016-09-08,78.9,78.9,77.43,77.46,327271,USD
2016-09-11,77.0,78.56,77.0,78.51,182082,USD
2016-09-12,78.08,78.37,77.14,77.54,247114,USD
2016-09-13,77.49,77.76,77.06,77.37,149972,USD
2016-09-14,77.3,77.99,77.26,77.9,162619,USD
2016-09-15,77.36,78.01,77.36,77.6,310303,USD
2016-09-18,77.9,78.8,77.89,78.61,233229,USD
2016-09-19,79.1,79.41,78.7,78.72,280950,USD
2016-09-20,78.81,78.81,77.84,78.42,413240,USD
2016-09-21,79.06,79.51,78.36,79.46,281242,USD
2016-09-22,79.17,79.49,78.61,78.79,157113,USD
2016-09-25,78.69,78.97,78.03,78.06,289062,USD
2016-09-26,77.36,78.14,77.36,77.74,631363,USD
2016-09-27,78.36,78.65,77.61,78.61,211891,USD
2016-09-28,78.28,78.57,77.08,77.21,175551,USD
2016-09-29,77.36,77.92,76.97,77.41,407279,USD
2016-10-02,77.07,77.44,76.6,77.36,301526,USD
2016-10-03,77.24,77.68,76.0,76.1,242680,USD
2016-10-04,76.46,76.59,75.93,76.11,189698,USD
2016-10-05,76.1,76.67,75.76,76.64,153470,USD
2016-10-06,76.66,76.67,75.19,75.64,279517,USD
2016-10-09,76.04,76.52,75.68,75.95,116369,USD
2016-10-10,75.62,75.72,74.55,75.07,152995,USD
2016-10-11,75.56,75.81,75.11,75.66,140867,USD
2016-10-12,74.78,76.2,74.58,75.59,211211,USD
2016-10-13,75.62,76.32,75.57,76.03,176818,USD
2016-10-16,76.02,76.47,76.01,76.2,81454,USD
2016-10-17,76.78,77.0,75.98,76.39,112928,USD
2016-10-18,76.28,76.78,76.04,76.48,97884,USD
2016-10-19,76.12,76.8,75.39,75.97,219684,USD
2016-10-20,76.23,77.41,75.87,77.16,184447,USD
2016-10-23,78.1,78.1,76.55,77.0,150838,USD
2016-10-24,77.0,77.14,76.19,77.0,187127,USD
2016-10-25,76.82,77.19,76.2,76.27,179249,USD
2016-10-26,76.39,76.39,75.61,76.28,174609,USD
2016-10-27,75.11,75.99,72.58,73.02,464700,USD
2016-10-30,72.93,73.89,70.88,71.44,644902,USD
2016-10-31,71.81,71.85,70.32,70.62,345495,USD
2016-11-01,70.58,71.54,70.43,70.92,267391,USD
2016-11-02,70.85,71.46,70.64,70.87,218440,USD
2016-11-03,71.11,71.9,70.98,71.41,235508,USD
2016-11-06,72.57,74.35,72.29,74.33,458830,USD
2016-11-07,74.28,76.07,74.05,75.74,506672,USD
2016-11-08,74.91,76.07,74.53,75.11,313417,USD
2016-11-09,75.6,75.6,71.27,71.43,636142,USD
2016-11-10,71.36,72.13,70.75,71.85,316912,USD
2016-11-13,72.29,73.54,72.29,73.51,308005,USD
2016-11-14,73.48,73.8,72.99,73.38,190346,USD
2016-11-15,73.63,73.72,72.91,73.57,205436,USD
2016-11-16,73.58,74.26,72.8,73.58,207514,USD
2016-11-17,73.42,73.76,72.87,73.65,229859,USD
2016-11-20,73.7,74.26,73.34,74.24,182626,USD
2016-11-21,74.6,75.65,73.96,75.49,452449,USD
2016-11-22,75.17,76.25,75.17,76.05,194226,USD
2016-11-24,76.04,76.66,75.75,76.07,123601,USD
2016-11-27,76.1,77.28,76.02,76.47,346974,USD
2016-11-28,76.55,76.86,74.8,75.68,327475,USD
2016-11-29,76.02,76.05,73.17,73.18,322793,USD
2016-11-30,73.2,74.34,72.46,74.08,467574,USD
2016-12-01,74.05,74.55,73.6,74.35,388062,USD
2016-12-04,74.84,75.13,73.16,73.38,350973,USD
2016-12-05,73.31,73.86,73.1,73.8,357257,USD
2016-12-06,71.84,73.92,71.84,73.48,579332,USD
2016-12-07,73.49,74.59,73.49,74.2,409101,USD
2016-12-08,74.61,75.18,74.28,74.75,389229,USD
2016-12-11,74.85,75.15,74.15,74.61,276797,USD
2016-12-12,74.9,75.6,74.31,74.37,270858,USD
2016-12-13,74.57,74.97,72.96,73.05,343948,USD
2016-12-14,73.32,73.72,72.83,72.96,346153,USD
2016-12-15,73.22,73.4,72.73,72.93,665829,USD
2016-12-18,73.19,74.03,72.78,73.8,280469,USD
2016-12-19,73.65,74.06,73.4,73.98,269911,USD
2016-12-20,73.87,74.16,73.34,73.36,280568,USD
2016-12-21,73.5,73.5,72.58,73.02,291816,USD
2016-12-22,72.86,73.93,72.86,73.61,161526,USD
2016-12-26,73.81,74.57,73.45,74.17,201864,USD
2016-12-27,74.05,74.69,73.57,73.72,191235,USD
2016-12-28,73.64,74.12,73.32,73.69,139464,USD
2016-12-29,73.73,74.02,73.25,73.45,240270,USD
2017-01-02,74.26,74.26,72.35,73.02,336293,USD
2017-01-03,72.92,74.72,72.92,74.23,419581,USD
2017-01-04,73.72,74.41,73.23,73.47,356694,USD
2017-01-05,73.53,73.97,73.07,73.5,283142,USD
2017-01-08,73.5,74.41,73.08,73.68,374141,USD
2017-01-09,73.33,73.59,72.8,72.82,161488,USD
2017-01-10,73.03,73.36,72.78,73.04,193161,USD
2017-01-11,73.15,73.76,72.36,73.33,184303,USD
2017-01-12,73.31,73.82,73.03,73.5,188879,USD
2017-01-16,72.88,73.83,72.86,73.34,270247,USD
2017-01-17,73.42,73.8,73.02,73.48,260959,USD
2017-01-18,73.64,73.69,72.46,72.73,374690,USD
2017-01-19,72.37,72.51,71.55,71.64,347291,USD
2017-01-22,71.88,72.53,71.44,72.45,384676,USD
2017-01-23,72.79,73.85,72.79,73.54,266799,USD
2017-01-24,73.36,73.94,73.14,73.43,267560,USD
2017-01-25,73.39,73.68,72.46,73.32,275510,USD
2017-01-26,73.4,73.49,72.91,73.44,320397,USD
2017-01-29,73.07,73.44,72.1,72.74,342247,USD
2017-01-30,72.87,73.31,72.29,72.97,669505,USD
2017-01-31,73.29,74.05,73.05,73.94,446900,USD
2017-02-01,73.8,73.8,73.01,73.33,326000,USD
2017-02-02,73.77,74.13,73.5,73.78,278230,USD
2017-02-05,73.53,74.02,73.12,73.35,254525,USD
2017-02-06,73.34,73.47,72.65,72.73,360882,USD
2017-02-07,72.62,73.7,72.44,73.55,397348,USD
2017-02-08,73.37,73.94,73.16,73.57,437997,USD
2017-02-09,74.21,76.2,74.21,74.79,1160077,USD
2017-02-12,75.22,75.44,74.36,74.43,440010,USD
2017-02-13,74.4,74.4,73.72,73.83,431966,USD
2017-02-14,73.83,73.92,72.86,73.2,522848,USD
2017-02-15,73.4,74.23,73.4,74.2,266985,USD
2017-02-16,74.42,74.55,73.47,73.9,318628,USD
2017-02-20,73.91,74.66,73.86,74.59,188727,USD
2017-02-21,74.34,74.81,73.94,74.26,204510,USD
2017-02-22,74.47,74.56,74.04,74.12,250598,USD
2017-02-23,73.78,74.49,73.64,74.36,232455,USD
2017-02-26,74.1,75.02,74.1,74.48,251809,USD
2017-02-27,74.27,74.65,73.95,74.51,390261,USD
2017-02-28,75.21,76.17,74.92,76.06,371000,USD
2017-03-01,75.69,76.07,75.46,75.81,327706,USD
2017-03-02,75.53,76.24,75.53,76.04,298395,USD
2017-03-05,75.47,76.09,75.47,75.65,302128,USD
2017-03-06,75.54,75.94,75.18,75.47,452664,USD
2017-03-07,75.28,76.06,75.28,75.94,435632,USD
2017-03-08,75.88,76.48,75.59,75.85,341286,USD
2017-03-09,76.12,77.0,75.8,76.79,435553,USD
2017-03-12,76.8,77.0,76.16,76.75,222648,USD
2017-03-13,75.63,77.02,75.35,76.53,266063,USD
2017-03-14,76.92,77.69,76.83,77.24,225810,USD
2017-03-15,77.3,77.53,76.69,76.98,186745,USD
2017-03-16,76.9,77.24,76.59,77.08,405118,USD
2017-03-19,77.17,77.87,76.75,77.84,247641,USD
2017-03-20,77.72,77.83,76.63,76.77,321349,USD
2017-03-21,76.66,77.08,76.5,76.85,130623,USD
2017-03-22,76.83,77.74,76.32,77.16,136566,USD
2017-03-23,77.19,77.65,76.33,76.62,154338,USD
2017-03-26,75.81,76.76,75.81,76.62,256173,USD
2017-03-27,76.41,77.28,76.33,77.07,237747,USD
2017-03-28,77.11,77.11,76.49,77.04,129335,USD
2017-03-29,76.99,77.38,76.56,76.86,141873,USD
2017-03-30,76.9,77.28,76.42,76.99,197237,USD
2017-04-02,76.94,77.46,76.2,76.45,424866,USD
2017-04-03,76.5,76.9,75.95,76.74,318885,USD
2017-04-04,77.04,77.04,76.02,76.08,372790,USD
2017-04-05,75.94,76.54,75.49,76.53,293689,USD
2017-04-06,76.49,76.79,76.02,76.16,214798,USD
2017-04-09,75.94,76.95,75.92,76.89,242477,USD
2017-04-10,76.6,76.97,76.42,76.92,263749,USD
2017-04-11,76.89,76.92,76.04,76.23,236765,USD
2017-04-12,76.05,76.59,75.76,75.8,164844,USD
2017-04-16,76.03,77.3,75.88,77.27,220680,USD
2017-04-17,77.04,77.68,76.94,77.57,196800,USD
2017-04-18,77.87,77.93,77.51,77.55,264847,USD
2017-04-19,76.95,78.32,76.95,77.82,354339,USD
2017-04-20,78.18,78.64,77.1,77.99,185387,USD
2017-04-23,78.97,78.97,77.72,78.3,250931,USD
2017-04-24,78.35,79.17,77.62,78.73,290488,USD
2017-04-25,78.92,79.5,78.69,79.34,343018,USD
2017-04-26,79.2,79.6,78.42,78.79,237612,USD
2017-04-27,80.0,80.53,78.75,80.3,638010,USD
2017-04-30,80.08,80.6,79.21,79.73,974597,USD
2017-05-01,79.35,80.68,78.89,80.2,450866,USD
2017-05-02,79.89,80.66,79.5,80.45,384455,USD
2017-05-03,80.5,81.72,80.5,81.39,488751,USD
2017-05-04,81.4,82.17,81.32,81.91,413429,USD
2017-05-07,82.08,82.61,81.72,82.51,374474,USD
2017-05-08,82.61,82.94,82.11,82.48,302629,USD
2017-05-09,82.25,83.04,82.25,82.87,308238,USD
2017-05-10,82.49,82.92,81.82,82.53,311474,USD
2017-05-11,82.45,82.82,82.24,82.43,227561,USD
2017-05-14,82.43,82.98,82.19,82.63,212008,USD
2017-05-15,82.58,82.8,82.23,82.79,210922,USD
2017-05-16,82.05,82.76,81.85,82.28,266522,USD
2017-05-17,82.25,82.4,81.12,82.14,325674,USD
2017-05-18,82.19,82.51,81.82,82.36,331890,USD
2017-05-21,82.25,82.98,82.05,82.84,238454,USD
2017-05-22,83.0,83.66,82.97,83.19,204255,USD
2017-05-23,83.19,83.52,82.8,83.39,187370,USD
2017-05-24,83.62,84.28,83.26,84.15,203220,USD
2017-05-25,84.15,84.63,84.06,84.37,158305,USD
2017-05-29,84.13,84.64,83.8,84.54,224397,USD
2017-05-30,85.18,85.18,84.42,85.01,285365,USD
2017-05-31,85.25,86.31,85.01,86.26,272639,USD
2017-06-01,86.4,86.73,85.73,86.33,170799,USD
2017-06-04,86.1,87.09,85.78,85.85,237631,USD
2017-06-05,85.83,85.83,85.06,85.48,342633,USD
2017-06-06,85.11,85.92,85.06,85.69,366697,USD
2017-06-07,85.78,85.99,84.86,85.25,184950,USD
2017-06-08,85.3,85.8,85.18,85.65,189964,USD
2017-06-11,85.24,85.98,84.87,85.44,238981,USD
2017-06-12,85.86,86.18,85.48,86.18,178677,USD
2017-06-13,86.04,86.77,86.04,86.25,212250,USD
2017-06-14,85.52,86.29,84.9,86.23,200008,USD
2017-06-15,86.0,86.36,85.45,85.95,450842,USD
2017-06-18,86.32,86.87,85.93,86.75,166591,USD
2017-06-19,86.95,87.18,86.65,86.89,240302,USD
2017-06-20,86.92,87.94,86.55,87.0,185943,USD
2017-06-21,86.96,87.36,86.41,86.82,166362,USD
2017-06-22,86.83,87.68,86.33,86.8,474255,USD
2017-06-25,86.97,87.59,86.61,87.14,307101,USD
2017-06-26,87.0,87.51,86.34,86.37,188034,USD
2017-06-27,86.96,87.37,86.27,86.93,169561,USD
2017-06-28,86.87,87.13,85.78,86.49,196193,USD
2017-06-29,86.93,87.33,86.77,86.86,238489,USD
2017-07-02,87.21,87.67,86.89,87.08,118790,USD
2017-07-04,86.95,87.5,86.44,87.29,243907,USD
2017-07-05,86.83,87.74,86.69,87.31,394067,USD
2017-07-06,87.69,88.55,87.14,88.09,245176,USD
2017-07-09,87.95,89.07,87.48,88.3,246389,USD
2017-07-10,88.19,88.58,87.75,88.17,180675,USD
2017-07-11,88.86,89.32,88.43,88.98,142438,USD
2017-07-12,89.07,89.27,87.79,88.63,278642,USD
2017-07-13,89.12,89.97,88.92,89.43,305868,USD
2017-07-16,89.5,89.97,89.23,89.79,299311,USD
2017-07-17,89.4,90.41,89.08,89.74,278625,USD
2017-07-18,90.32,90.79,89.68,90.09,395267,USD
2017-07-19,90.27,90.48,89.53,89.7,323101,USD
2017-07-20,89.99,89.99,89.0,89.51,271536,USD
2017-07-23,88.94,89.59,88.59,89.46,390203,USD
2017-07-24,89.96,89.96,88.52,88.69,596922,USD
2017-07-25,88.78,88.97,87.99,88.06,317794,USD
2017-07-26,88.5,88.5,87.26,88.0,328952,USD
2017-07-27,83.4,83.7,80.83,82.31,915028,USD
2017-07-30,82.24,83.5,80.69,80.93,964181,USD
2017-07-31,81.0,82.79,80.98,82.51,463374,USD
2017-08-01,82.54,82.75,81.23,82.25,348609,USD
2017-08-02,82.3,82.42,81.82,82.25,322188,USD
2017-08-03,82.5,82.78,82.17,82.36,168169,USD
2017-08-06,82.55,82.95,82.39,82.74,172158,USD
2017-08-07,82.63,82.93,82.4,82.74,163316,USD
2017-08-08,82.5,82.8,82.24,82.48,189006,USD
2017-08-09,82.23,82.74,81.48,81.51,265319,USD
2017-08-10,82.35,82.35,81.41,82.14,214223,USD
2017-08-13,82.63,83.0,82.51,82.91,147273,USD
2017-08-14,82.74,83.0,82.55,82.75,190919,USD
2017-08-15,82.86,83.83,82.7,83.55,248805,USD
2017-08-16,83.27,83.52,82.12,82.13,221656,USD
2017-08-17,82.01,82.3,81.64,82.15,190983,USD
2017-08-20,82.06,82.48,81.34,81.49,126263,USD
2017-08-21,81.98,82.29,81.73,82.12,190067,USD
2017-08-22,81.75,82.53,81.49,81.61,180549,USD
2017-08-23,81.73,82.06,80.95,81.08,180055,USD
2017-08-24,81.5,82.73,81.5,82.39,330207,USD
2017-08-27,82.65,82.78,81.49,81.86,241605,USD
2017-08-28,81.9,82.1,81.57,82.0,226288,USD
2017-08-29,82.14,83.18,81.9,82.97,208125,USD
2017-08-30,83.18,83.66,82.72,83.61,267379,USD
2017-08-31,83.8,84.0,83.42,83.88,183042,USD
2017-09-04,83.72,84.17,83.18,83.25,192474,USD
2017-09-05,83.33,83.33,82.49,82.85,240863,USD
2017-09-06,82.96,83.74,82.32,83.61,241054,USD
2017-09-07,83.5,84.18,82.77,83.82,207706,USD
2017-09-10,84.32,85.17,84.0,85.12,209799,USD
2017-09-11,84.93,85.44,84.71,85.2,214526,USD
2017-09-12,84.61,85.04,84.37,84.5,229524,USD
2017-09-13,84.51,85.1,84.16,84.87,166326,USD
2017-09-14,84.74,84.95,84.48,84.71,399786,USD
2017-09-17,84.97,85.67,84.74,85.44,198665,USD
2017-09-18,85.43,85.76,84.95,85.56,260352,USD
2017-09-19,85.66,86.24,85.64,86.12,167309,USD
2017-09-20,86.08,86.76,85.87,86.15,199580,USD
2017-09-21,86.2,86.27,85.45,85.72,189488,USD
2017-09-24,85.75,86.89,85.35,86.76,222838,USD
2017-09-25,87.1,87.32,86.45,86.75,199743,USD
2017-09-26,86.8,86.93,86.21,86.54,272939,USD
2017-09-27,86.36,87.51,86.09,87.08,228244,USD
2017-09-28,87.02,87.13,86.3,86.31,220727,USD
2017-10-01,86.81,87.97,86.54,87.88,264007,USD
2017-10-02,87.9,88.44,87.89,88.43,202324,USD
2017-10-03,88.26,88.85,87.92,88.14,231660,USD
2017-10-04,88.51,88.73,87.62,88.14,178915,USD
2017-10-05,88.04,88.63,87.9,88.58,162801,USD
2017-10-08,88.68,88.79,88.33,88.46,139432,USD
2017-10-09,88.6,88.87,88.22,88.47,186982,USD
2017-10-10,88.48,88.8,88.19,88.36,162511,USD
2017-10-11,88.5,88.71,88.22,88.49,168062,USD
2017-10-12,88.69,89.37,88.69,88.84,187132,USD
2017-10-15,88.92,88.94,87.97,88.94,236025,USD
2017-10-16,89.3,89.3,88.71,88.98,175345,USD
2017-10-17,88.73,89.37,88.32,88.6,207629,USD
2017-10-18,88.51,88.83,88.35,88.64,152121,USD
2017-10-19,89.23,89.31,88.7,89.2,134753,USD
2017-10-22,89.16,89.67,88.92,89.03,418943,USD
2017-10-23,89.06,89.63,88.83,89.12,189251,USD
2017-10-24,89.07,89.47,87.69,88.49,201881,USD
2017-10-25,88.81,89.24,88.6,88.94,234731,USD
2017-10-26,89.4,89.4,85.89,87.93,531677,USD
2017-10-29,87.46,87.59,86.25,86.46,260476,USD
2017-10-30,86.25,87.3,86.12,87.07,474897,USD
2017-10-31,87.83,88.12,87.21,87.41,279320,USD
2017-11-01,87.09,87.37,86.32,86.6,259249,USD
2017-11-02,86.6,87.18,86.6,86.94,215968,USD
2017-11-05,87.02,87.08,85.68,85.85,271752,USD
2017-11-06,85.85,86.11,85.39,85.72,326994,USD
2017-11-07,85.68,86.6,85.64,85.73,271415,USD
2017-11-08,85.2,85.42,84.32,84.76,146660,USD
2017-11-09,84.35,85.11,84.22,84.91,195792,USD
2017-11-12,84.62,85.76,84.62,85.59,156136,USD
2017-11-13,85.38,85.89,85.16,85.61,157458,USD
2017-11-14,85.54,85.98,85.08,85.48,182541,USD
2017-11-15,85.74,86.5,85.6,86.11,264401,USD
2017-11-16,86.03,86.24,85.48,85.65,170988,USD
2017-11-19,85.61,86.43,85.32,85.47,220294,USD
2017-11-20,85.92,86.82,85.32,86.54,506685,USD
2017-11-21,86.61,86.62,85.79,85.85,140281,USD
2017-11-23,85.49,86.34,85.1,86.25,108243,USD
2017-11-26,86.37,87.0,86.37,86.74,330882,USD
2017-11-27,87.28,87.47,86.43,86.91,194666,USD
2017-11-28,87.11,87.74,87.08,87.56,194274,USD
2017-11-29,87.61,88.9,87.08,88.41,232041,USD
2017-11-30,88.33,88.99,86.44,87.6,244371,USD
2017-12-03,87.79,88.7,87.32,88.06,290376,USD
2017-12-04,88.33,89.16,87.89,89.0,255868,USD
2017-12-05,88.94,88.94,88.12,88.17,251694,USD
2017-12-06,88.45,88.72,87.79,88.38,258943,USD
2017-12-07,88.27,88.5,87.56,87.9,251057,USD
2017-12-10,87.87,87.87,86.86,87.28,241366,USD
2017-12-11,87.3,87.54,85.7,86.43,424767,USD
2017-12-12,86.05,87.19,85.76,86.69,420871,USD
2017-12-13,87.08,87.21,86.32,86.37,302012,USD
2017-12-14,86.59,87.51,86.59,86.98,474904,USD
2017-12-17,87.25,87.89,86.48,86.57,251820,USD
2017-12-18,86.3,87.65,86.3,86.58,367204,USD
2017-12-19,86.84,87.13,86.29,86.33,189513,USD
2017-12-20,86.4,86.79,85.72,85.76,265425,USD
2017-12-21,85.68,86.36,85.43,85.9,162614,USD
2017-12-25,85.79,86.45,85.22,85.39,130536,USD
2017-12-26,85.42,85.82,85.06,85.62,114736,USD
2017-12-27,85.85,86.87,85.66,86.75,207000,USD
2017-12-28,86.88,87.0,86.24,86.28,148922,USD
2018-01-01,86.44,87.32,86.08,87.01,233277,USD
2018-01-02,87.26,87.61,86.82,87.19,177866,USD
2018-01-03,87.21,87.93,85.8,86.01,362860,USD
2018-01-04,86.29,87.45,86.19,86.91,209246,USD
2018-01-07,86.86,87.51,86.57,87.2,341229,USD
2018-01-08,87.28,87.76,86.36,86.39,282025,USD
2018-01-09,86.1,86.1,85.16,85.67,161481,USD
2018-01-10,85.44,86.49,85.44,86.25,311574,USD
2018-01-11,86.37,86.94,85.88,86.56,179424,USD
2018-01-15,86.36,87.2,86.01,86.24,254129,USD
2018-01-16,86.77,87.28,86.51,86.84,250464,USD
2018-01-17,86.85,87.32,86.35,87.24,220849,USD
2018-01-18,87.3,88.7,87.3,88.61,177488,USD
2018-01-21,88.61,88.61,86.6,87.46,369877,USD
2018-01-22,87.44,87.75,86.91,87.6,158876,USD
2018-01-23,87.81,88.6,86.35,88.2,255015,USD
2018-01-24,88.4,89.43,88.13,89.43,339050,USD
2018-01-25,89.48,89.5,88.46,89.14,206355,USD
2018-01-28,88.73,89.23,87.54,87.73,254530,USD
2018-01-29,87.45,87.96,87.05,87.69,344990,USD
2018-01-30,88.09,88.1,86.76,87.42,519129,USD
2018-01-31,87.24,87.63,85.81,86.84,220827,USD
2018-02-01,86.53,86.91,85.54,85.8,217791,USD
2018-02-04,85.1,86.0,83.38,83.38,434248,USD
2018-02-05,82.38,83.89,81.41,83.79,352721,USD
2018-02-06,83.81,84.91,83.73,83.85,304724,USD
2018-02-07,83.86,84.82,81.36,81.38,349147,USD
2018-02-08,82.09,82.59,79.97,82.16,367204,USD
2018-02-11,82.56,83.44,81.59,82.6,303465,USD
2018-02-12,86.75,92.32,86.3,89.72,1101994,USD
2018-02-13,89.58,90.87,88.74,90.66,512092,USD
2018-02-14,90.18,91.97,90.18,91.17,333362,USD
2018-02-15,91.04,92.14,90.49,91.83,335565,USD
2018-02-19,91.24,92.19,90.72,91.06,371976,USD
2018-02-20,91.34,92.28,90.11,90.16,283395,USD
2018-02-21,90.44,91.46,90.31,90.61,255255,USD
2018-02-22,90.74,91.07,89.93,90.99,249922,USD
2018-02-25,91.28,91.48,90.39,90.78,250340,USD
2018-02-26,90.73,90.73,89.44,89.5,286538,USD
2018-02-27,89.73,90.41,89.21,89.42,306929,USD
2018-02-28,89.24,90.49,88.31,89.0,242020,USD
2018-03-01,88.74,89.89,88.3,89.68,270841,USD
2018-03-04,89.31,90.7,89.31,90.4,231224,USD
2018-03-05,90.37,91.05,89.28,90.77,295821,USD
2018-03-06,89.98,91.14,89.71,90.14,317500,USD
2018-03-07,90.4,90.83,89.45,89.95,367990,USD
2018-03-08,89.94,90.95,89.56,90.87,283208,USD
2018-03-11,90.7,90.98,90.4,90.78,181057,USD
2018-03-12,91.27,92.1,90.27,90.5,257520,USD
2018-03-13,90.96,91.27,89.43,90.07,267190,USD
2018-03-14,90.14,90.56,89.8,90.28,239638,USD
2018-03-15,90.35,91.13,89.75,90.15,424819,USD
2018-03-18,90.06,90.36,89.45,89.96,155180,USD
2018-03-19,90.02,90.49,89.67,89.78,247724,USD
2018-03-20,89.71,90.33,89.39,89.59,266398,USD
2018-03-21,89.22,89.91,87.93,87.96,260907,USD
2018-03-22,87.94,88.56,86.69,86.77,215889,USD
2018-03-25,87.66,88.55,87.07,88.21,279270,USD
2018-03-26,88.52,89.13,87.62,88.08,253264,USD
2018-03-27,88.08,88.9,87.82,88.36,194018,USD
2018-03-28,88.88,90.34,88.36,89.83,287331,USD
2018-04-01,89.37,89.74,87.17,87.93,184422,USD
2018-04-02,88.43,90.17,87.69,89.56,336662,USD
2018-04-03,88.92,89.95,86.85,89.71,276508,USD
2018-04-04,90.3,90.85,89.28,90.4,276399,USD
2018-04-05,89.69,90.36,88.23,88.5,362226,USD
2018-04-08,89.15,90.34,88.59,89.9,471701,USD
2018-04-09,90.75,93.1,90.1,92.72,456727,USD
2018-04-10,91.97,92.64,91.75,92.25,250832,USD
2018-04-11,92.76,93.25,92.47,92.7,221469,USD
2018-04-12,93.2,93.33,92.46,92.75,262933,USD
2018-04-15,93.03,94.66,92.96,94.31,197102,USD
2018-04-16,94.28,96.39,93.79,96.13,507151,USD
2018-04-17,96.15,96.2,95.18,95.61,346822,USD
2018-04-18,95.05,95.88,94.54,94.8,164994,USD
2018-04-19,95.11,95.14,94.12,94.44,217829,USD
2018-04-22,94.71,95.43,94.1,94.35,189535,USD
2018-04-23,94.6,94.7,92.77,93.18,401942,USD
2018-04-24,93.02,93.95,92.37,93.15,298683,USD
2018-04-25,93.18,93.7,92.6,93.28,416966,USD
2018-04-26,93.75,94.74,91.88,93.46,407466,USD
2018-04-29,93.73,93.99,93.05,93.5,907788,USD
2018-04-30,93.45,93.87,92.73,93.54,427775,USD
2018-05-01,94.0,94.0,92.47,92.56,631054,USD
2018-05-02,92.25,92.83,90.98,91.12,560175,USD
2018-05-03,90.84,92.77,90.84,92.26,339865,USD
2018-05-06,92.37,93.29,92.3,92.8,215114,USD
2018-05-07,92.77,92.79,91.55,91.76,284677,USD
2018-05-08,92.0,93.06,91.37,92.96,255572,USD
2018-05-09,93.1,93.94,93.05,93.79,377871,USD
2018-05-10,93.75,94.32,93.15,94.29,492917,USD
2018-05-13,94.19,94.71,92.29,93.37,477510,USD
2018-05-14,93.17,93.17,91.59,92.1,406481,USD
2018-05-15,92.32,93.77,91.92,93.54,257640,USD
2018-05-16,93.67,93.92,93.05,93.29,242644,USD
2018-05-17,92.56,94.28,92.38,93.56,272286,USD
2018-05-20,94.02,94.41,93.84,94.01,162296,USD
2018-05-21,94.28,94.95,93.67,93.96,165668,USD
2018-05-22,93.63,94.27,93.36,94.09,165822,USD
2018-05-23,94.12,94.48,93.58,94.03,116184,USD
2018-05-24,93.88,94.42,93.85,94.08,154961,USD
2018-05-28,93.46,94.01,93.06,93.31,212663,USD
2018-05-29,92.7,94.41,92.7,93.96,258583,USD
2018-05-30,94.25,94.39,92.19,92.32,151882,USD
2018-05-31,92.88,93.28,92.47,92.77,174812,USD
2018-06-03,93.11,93.9,92.44,93.86,172130,USD
2018-06-04,94.06,94.5,93.56,93.92,114863,USD
2018-06-05,93.67,94.1,92.04,93.91,437318,USD
2018-06-06,93.83,94.43,92.44,93.24,534002,USD
2018-06-07,93.05,93.9,92.98,93.66,290594,USD
2018-06-10,93.79,94.86,93.43,93.82,389397,USD
2018-06-11,94.09,94.89,93.6,94.15,455067,USD
2018-06-12,94.55,95.0,94.05,94.32,321416,USD
2018-06-13,94.81,95.26,94.26,94.86,320421,USD
2018-06-14,95.0,95.37,94.39,94.92,505171,USD
2018-06-17,94.57,95.08,94.02,94.84,347357,USD
2018-06-18,93.95,94.62,93.61,94.25,333769,USD
2018-06-19,94.17,94.87,93.94,94.64,285642,USD
2018-06-20,94.51,94.61,92.95,93.1,296952,USD
2018-06-21,93.28,93.49,92.34,92.63,750023,USD
2018-06-24,92.77,93.2,91.42,92.18,348676,USD
2018-06-25,92.35,93.45,92.02,92.71,266687,USD
2018-06-26,92.78,93.91,92.07,92.1,295836,USD
2018-06-27,92.0,92.76,91.66,92.71,251317,USD
2018-06-28,93.2,94.12,92.93,93.38,336590,USD
2018-07-01,92.91,93.77,92.46,93.59,237713,USD
2018-07-02,93.96,95.03,93.61,93.99,178013,USD
2018-07-04,94.49,94.54,93.45,94.54,249933,USD
2018-07-05,94.22,94.38,93.72,94.08,238034,USD
2018-07-08,94.45,95.63,94.45,95.1,188737,USD
2018-07-09,95.17,96.16,95.17,96.11,216111,USD
2018-07-10,95.61,96.37,95.11,95.68,220824,USD
2018-07-11,96.0,96.83,95.59,95.74,196740,USD
2018-07-12,95.36,96.19,94.66,94.87,205285,USD
2018-07-15,94.77,94.88,93.17,93.29,132207,USD
2018-07-16,93.22,94.74,93.16,94.64,155525,USD
2018-07-17,94.64,95.18,94.18,94.62,150047,USD
2018-07-18,94.7,96.54,94.7,96.33,213372,USD
2018-07-19,95.94,96.16,95.33,95.78,192974,USD
2018-07-22,95.94,96.33,94.79,95.14,196130,USD
2018-07-23,95.34,95.86,94.53,94.75,225316,USD
2018-07-24,94.57,95.0,94.05,94.73,182350,USD
2018-07-25,94.88,96.38,94.56,96.07,170348,USD
2018-07-26,98.0,103.03,97.15,102.9,637544,USD
2018-07-29,103.52,104.1,99.94,102.5,531829,USD
2018-07-30,102.48,103.48,100.78,102.43,588092,USD
2018-07-31,102.4,102.68,101.41,102.43,301378,USD
2018-08-01,101.64,103.58,101.31,102.98,327441,USD
2018-08-02,102.99,104.5,102.85,104.1,300426,USD
2018-08-05,104.01,104.95,103.98,104.21,279828,USD
2018-08-06,104.16,104.68,103.39,103.55,296459,USD
2018-08-07,103.34,103.98,102.87,102.96,277860,USD
2018-08-08,103.11,104.06,103.0,103.9,265741,USD
2018-08-09,103.37,104.04,102.16,102.38,325603,USD
2018-08-12,102.24,103.47,100.94,101.4,227754,USD
2018-08-13,101.89,102.5,101.33,101.98,176471,USD
2018-08-14,101.56,101.66,100.06,101.34,300646,USD
2018-08-15,101.62,102.16,101.35,101.67,276339,USD
2018-08-16,101.68,102.99,101.4,102.76,131912,USD
2018-08-19,102.92,103.52,102.6,102.86,198860,USD
2018-08-20,102.83,103.85,102.83,103.29,209565,USD
2018-08-21,103.32,103.4,102.74,103.18,103272,USD
2018-08-22,103.32,103.55,102.76,102.91,124393,USD
2018-08-23,102.98,104.14,102.98,103.8,127262,USD
2018-08-26,103.79,104.84,103.79,104.54,175418,USD
2018-08-27,104.56,105.19,103.81,103.89,214901,USD
2018-08-28,104.2,105.17,103.77,104.7,200032,USD
2018-08-29,104.86,105.77,103.82,104.7,231956,USD
2018-08-30,104.62,105.44,104.38,104.71,152976,USD
2018-09-03,105.32,106.5,104.58,106.38,323596,USD
2018-09-04,106.28,108.78,106.28,108.18,334141,USD
2018-09-05,108.4,109.69,108.12,108.95,228403,USD
2018-09-06,108.94,108.94,107.79,107.9,258482,USD
2018-09-09,108.39,109.08,107.89,108.56,212420,USD
2018-09-10,108.26,108.73,107.54,108.52,101635,USD
2018-09-11,108.36,109.63,108.12,109.39,154730,USD
2018-09-12,108.75,110.9,108.67,110.82,273891,USD
2018-09-13,110.77,112.16,109.79,111.97,424194,USD
2018-09-16,112.3,112.31,110.91,111.3,564522,USD
2018-09-17,111.2,111.79,109.97,111.59,202630,USD
2018-09-18,111.67,111.89,110.53,111.13,204276,USD
2018-09-19,111.28,111.51,110.19,110.49,204539,USD
2018-09-20,110.17,110.85,109.67,110.32,473172,USD
2018-09-23,110.2,111.47,109.99,110.38,352381,USD
2018-09-24,110.75,110.96,108.62,108.76,279003,USD
2018-09-25,108.66,109.49,108.37,108.6,629135,USD
2018-09-26,108.6,109.19,108.16,108.34,255606,USD
2018-09-27,108.21,108.89,107.55,107.74,417093,USD
2018-09-30,108.05,109.2,107.37,107.77,208783,USD
2018-10-01,107.93,108.61,107.6,108.15,210333,USD
2018-10-02,108.51,108.63,107.53,108.0,361245,USD
2018-10-03,107.79,107.79,106.3,107.09,273292,USD
2018-10-04,107.17,107.64,106.96,107.17,220877,USD
2018-10-07,107.12,107.85,106.84,107.67,164691,USD
2018-10-08,107.39,107.39,105.68,105.72,277638,USD
2018-10-09,105.3,105.77,102.12,102.42,456009,USD
2018-10-10,102.37,103.46,101.46,101.57,312734,USD
2018-10-11,102.68,103.36,100.34,101.65,399111,USD
2018-10-14,101.67,102.96,101.05,102.15,239587,USD
2018-10-15,102.66,105.77,102.66,105.6,231291,USD
2018-10-16,106.09,106.09,104.42,105.02,181208,USD
2018-10-17,104.73,105.24,103.83,104.27,439856,USD
2018-10-18,104.59,105.21,104.28,104.32,271771,USD
2018-10-21,104.61,104.73,103.05,103.97,199259,USD
2018-10-22,102.73,104.57,101.72,103.68,479536,USD
2018-10-23,103.63,103.82,99.88,100.08,498333,USD
2018-10-24,100.88,101.97,100.5,101.29,299776,USD
2018-10-25,100.45,101.05,99.31,100.36,423761,USD
2018-10-28,101.32,102.06,99.14,100.16,271254,USD
2018-10-29,100.04,101.41,99.34,101.37,318586,USD
2018-10-30,102.43,103.07,101.85,101.96,417195,USD
2018-10-31,102.69,103.47,102.39,103.18,392576,USD
2018-11-01,97.05,105.33,95.06,103.8,959342,USD
2018-11-04,103.99,104.48,101.25,101.88,481521,USD
2018-11-05,101.64,104.77,101.49,104.1,381287,USD
2018-11-06,104.88,105.26,103.34,105.11,340223,USD
2018-11-07,104.95,105.77,104.6,105.13,368402,USD
2018-11-08,104.96,105.8,103.13,104.29,227448,USD
2018-11-11,104.16,104.35,101.58,101.77,343096,USD
2018-11-12,102.33,103.46,101.54,102.38,225157,USD
2018-11-13,103.04,103.91,101.71,102.08,163246,USD
2018-11-14,101.55,104.83,101.21,104.79,261036,USD
2018-11-15,104.19,107.15,104.19,106.28,235495,USD
2018-11-18,106.2,106.65,104.71,105.18,192668,USD
2018-11-19,104.62,105.43,103.37,104.31,246845,USD
2018-11-20,104.68,105.19,103.15,103.5,221565,USD
2018-11-22,103.0,104.42,102.98,103.9,75383,USD
2018-11-25,104.72,104.99,102.94,103.69,231733,USD
2018-11-26,103.3,103.32,102.09,102.3,213379,USD
2018-11-27,102.8,104.07,101.68,104.03,327835,USD
2018-11-28,103.72,104.93,103.69,103.85,238440,USD
2018-11-29,103.66,104.55,103.25,104.05,330395,USD
2018-12-02,105.23,105.51,102.45,104.46,292031,USD
2018-12-03,104.86,104.86,102.83,102.94,273098,USD
2018-12-05,102.0,102.0,98.35,101.63,302903,USD
2018-12-06,100.89,102.85,99.1,99.77,226104,USD
2018-12-09,99.43,99.86,98.22,99.11,161095,USD
2018-12-10,100.1,101.02,98.28,98.67,192638,USD
2018-12-11,100.1,100.94,99.75,99.93,240918,USD
2018-12-12,100.42,101.27,99.51,100.32,167754,USD
2018-12-13,100.04,100.96,99.13,100.34,187060,USD
2018-12-16,99.84,100.65,98.04,98.64,313945,USD
2018-12-17,99.43,100.27,97.27,97.94,231027,USD
2018-12-18,98.28,98.84,95.27,95.59,268346,USD
2018-12-19,95.51,96.15,93.67,95.01,248103,USD
2018-12-20,94.76,96.61,93.51,93.55,588809,USD
2018-12-23,92.86,92.86,89.67,89.7,168286,USD
2018-12-25,89.72,92.01,89.72,91.77,394422,USD
2018-12-26,90.7,92.48,90.01,92.37,467457,USD
2018-12-27,92.6,93.91,92.05,92.7,437401,USD
2018-12-30,92.82,94.07,92.66,94.07,246890,USD
2019-01-01,92.73,92.73,89.45,90.18,517509,USD
2019-01-02,88.97,90.21,88.26,89.09,637150,USD
2019-01-03,90.1,91.9,89.29,91.07,433585,USD
2019-01-06,90.6,93.49,90.58,91.95,525521,USD
2019-01-07,92.82,94.1,91.76,93.52,379628,USD
2019-01-08,93.86,94.2,93.21,93.48,195706,USD
2019-01-09,93.14,94.82,93.13,94.58,205761,USD
2019-01-10,94.67,94.75,93.43,94.73,248230,USD
2019-01-13,94.28,94.84,93.74,93.96,210516,USD
2019-01-14,93.97,95.4,93.9,94.81,213878,USD
2019-01-15,94.82,95.35,94.39,94.71,187128,USD
2019-01-16,94.39,96.17,94.38,95.93,265504,USD
2019-01-17,96.1,97.97,95.88,97.69,237430,USD
2019-01-21,97.42,98.25,95.12,96.44,304042,USD
2019-01-22,96.7,97.77,96.25,97.38,266276,USD
2019-01-23,97.25,98.06,96.71,97.13,135290,USD
2019-01-24,97.91,98.35,97.07,97.39,116296,USD
2019-01-27,97.39,98.51,97.28,97.88,217930,USD
2019-01-28,97.42,98.42,97.42,97.94,161557,USD
2019-01-29,98.1,98.8,97.62,97.96,292489,USD
2019-01-30,98.0,99.28,97.24,99.12,346521,USD
2019-01-31,99.33,99.98,99.05,99.55,269591,USD
2019-02-03,99.42,99.89,98.52,99.85,137152,USD
2019-02-04,99.95,101.13,99.42,101.07,288010,USD
2019-02-05,100.62,102.0,100.58,101.59,206815,USD
2019-02-06,101.13,102.04,100.84,101.95,202107,USD
2019-02-07,101.57,102.31,100.96,101.39,184333,USD
2019-02-10,101.88,102.45,101.24,101.7,239062,USD
2019-02-11,102.3,102.69,101.74,102.32,230014,USD
2019-02-12,102.71,103.51,102.26,102.8,229736,USD
2019-02-13,102.24,103.03,101.56,101.77,234016,USD
2019-02-14,102.32,102.46,101.34,101.94,235783,USD
2019-02-18,101.84,102.03,101.26,101.55,378752,USD
2019-02-19,101.47,102.66,101.31,102.26,282132,USD
2019-02-20,102.3,104.0,100.64,103.12,508609,USD
2019-02-21,102.48,103.55,101.24,102.05,303446,USD
2019-02-24,102.27,102.6,101.11,101.56,336106,USD
2019-02-25,101.21,101.67,100.93,101.31,302453,USD
2019-02-26,102.02,102.3,100.79,101.41,375294,USD
2019-02-27,101.26,102.05,100.97,101.73,311513,USD
2019-02-28,102.21,102.21,100.69,100.81,245917,USD
2019-03-03,101.25,102.15,100.63,101.61,323954,USD
2019-03-04,101.68,102.27,101.33,101.47,210995,USD
2019-03-05,101.53,102.02,100.43,100.49,127463,USD
2019-03-06,100.2,100.63,99.36,99.88,151639,USD
2019-03-07,99.21,100.62,99.21,100.47,146283,USD
2019-03-10,100.6,102.07,100.57,102.02,175345,USD
2019-03-11,102.06,102.91,102.05,102.26,176738,USD
2019-03-12,102.5,103.34,102.09,102.28,287600,USD
2019-03-13,102.34,103.04,101.81,102.89,169366,USD
2019-03-14,102.92,103.58,102.58,103.05,278639,USD
2019-03-17,103.22,103.84,102.85,103.71,132825,USD
2019-03-18,104.22,104.59,103.24,103.6,188787,USD
2019-03-19,103.42,104.83,102.86,103.95,181304,USD
2019-03-20,103.57,105.68,103.57,105.54,194030,USD
2019-03-21,105.26,105.26,103.5,103.83,213244,USD
2019-03-24,103.55,104.97,103.02,104.51,163923,USD
2019-03-25,105.0,106.38,104.7,105.44,262331,USD
2019-03-26,105.52,106.49,105.13,105.52,179545,USD
2019-03-27,105.76,106.39,105.42,106.19,129881,USD
2019-03-28,106.1,106.68,105.47,106.39,337852,USD
2019-03-31,106.91,107.82,106.21,107.71,234028,USD
2019-04-01,107.8,107.8,106.66,107.22,194630,USD
2019-04-02,107.61,108.08,107.16,107.47,201174,USD
2019-04-03,107.68,108.16,107.29,108.1,164039,USD
2019-04-04,107.57,108.96,107.57,108.74,161427,USD
2019-04-07,108.65,109.27,107.98,108.99,149643,USD
2019-04-08,108.39,108.56,107.52,108.16,183397,USD
2019-04-09,108.22,109.3,107.95,109.04,166232,USD
2019-04-10,109.29,109.86,108.97,109.66,228850,USD
2019-04-11,109.95,110.69,109.79,110.31,185905,USD
2019-04-14,110.34,110.5,109.48,109.89,190458,USD
2019-04-15,109.81,109.97,108.76,109.62,197586,USD
2019-04-16,109.68,109.75,107.59,107.7,150516,USD
2019-04-17,107.93,108.38,107.3,108.21,214628,USD
2019-04-21,108.25,109.37,108.25,108.93,165792,USD
2019-04-22,109.03,110.53,109.03,110.06,220847,USD
2019-04-23,109.97,110.86,109.94,109.94,152213,USD
2019-04-24,109.21,109.97,108.83,109.45,132433,USD
2019-04-25,109.71,111.65,109.7,111.42,138903,USD
2019-04-28,111.38,111.72,110.76,111.32,137617,USD
2019-04-29,110.75,111.81,109.93,111.24,277619,USD
2019-04-30,112.27,114.66,111.55,112.81,336088,USD
2019-05-01,112.81,113.11,111.62,113.0,345204,USD
2019-05-02,113.3,114.14,112.73,113.85,310238,USD
2019-05-05,112.54,115.52,112.54,115.02,263005,USD
2019-05-06,113.98,114.68,113.14,113.97,159469,USD
2019-05-07,113.78,114.48,113.31,113.99,169440,USD
2019-05-08,113.38,113.79,112.76,113.0,259340,USD
2019-05-09,112.72,113.71,112.18,113.6,225077,USD
2019-05-12,111.91,113.17,111.29,112.8,160051,USD
2019-05-13,113.39,114.36,112.89,112.98,132569,USD
2019-05-14,112.76,113.77,112.36,113.24,116542,USD
2019-05-15,113.38,114.5,113.25,114.11,218788,USD
2019-05-16,113.49,114.46,113.49,113.78,151774,USD
2019-05-19,113.19,113.81,112.83,113.04,175618,USD
2019-05-20,113.51,113.89,113.09,113.48,156312,USD
2019-05-21,113.77,113.98,113.0,113.15,146841,USD
2019-05-22,112.54,113.69,112.04,112.96,119559,USD
2019-05-23,113.29,113.86,112.75,112.93,117688,USD
2019-05-27,113.04,113.61,112.69,112.9,259214,USD
2019-05-28,112.54,113.44,112.28,112.7,188163,USD
2019-05-29,112.73,113.62,112.54,113.51,128668,USD
2019-05-30,112.53,113.73,111.5,113.27,247393,USD
2019-06-02,113.41,115.0,113.41,114.03,297386,USD
2019-06-03,114.7,115.98,113.68,115.72,483419,USD
2019-06-04,115.9,117.18,115.41,117.13,391954,USD
2019-06-05,117.21,120.39,117.21,120.23,319780,USD
2019-06-06,120.0,122.6,119.92,121.92,427824,USD
2019-06-09,122.19,123.28,121.63,123.22,253226,USD
2019-06-10,124.0,124.44,121.21,122.58,365595,USD
2019-06-11,122.99,122.99,121.19,121.62,273428,USD
2019-06-12,121.5,122.1,120.31,120.72,166542,USD
2019-06-13,120.46,120.51,119.57,120.09,187349,USD
2019-06-16,120.04,120.84,119.79,120.17,136290,USD
2019-06-17,120.59,120.7,119.38,119.49,208300,USD
2019-06-18,119.63,120.0,118.82,119.41,340170,USD
2019-06-19,120.89,121.0,118.28,119.81,335216,USD
2019-06-20,119.32,119.85,117.43,119.38,603561,USD
2019-06-23,119.5,119.5,118.48,118.78,187657,USD
2019-06-24,119.0,121.79,118.88,121.06,300711,USD
2019-06-25,121.24,121.25,119.1,119.24,236658,USD
2019-06-26,119.39,121.81,119.39,121.55,247700,USD
2019-06-27,121.62,124.75,121.62,124.34,831071,USD
2019-06-30,125.0,126.19,123.12,124.27,322479,USD
2019-07-01,124.37,124.71,123.22,123.54,402402,USD
2019-07-02,124.0,125.92,124.0,125.92,188631,USD
2019-07-04,125.21,125.26,123.01,124.61,255265,USD
2019-07-07,125.5,125.5,123.64,123.99,199616,USD
2019-07-08,123.79,124.53,123.79,124.07,235037,USD
2019-07-09,124.63,125.79,123.35,123.58,169886,USD
2019-07-10,123.27,124.12,123.01,124.02,226439,USD
2019-07-11,124.19,124.19,123.21,123.41,240997,USD
2019-07-14,123.15,123.96,122.69,122.92,189630,USD
2019-07-15,123.12,123.36,122.3,123.16,230822,USD
2019-07-16,123.12,124.43,123.12,123.53,267313,USD
2019-07-17,123.15,124.45,123.03,124.36,185306,USD
2019-07-18,124.71,124.94,123.36,123.4,226034,USD
2019-07-21,123.51,123.89,122.82,123.16,153780,USD
2019-07-22,123.89,124.71,123.38,124.51,183579,USD
2019-07-23,124.01,124.55,122.84,123.29,215324,USD
2019-07-24,123.0,124.28,122.67,122.92,273685,USD
2019-07-25,123.13,124.77,122.93,124.49,198002,USD
2019-07-28,124.45,125.66,123.54,124.94,277407,USD
2019-07-29,123.8,124.57,122.96,123.81,223556,USD
2019-07-30,123.49,123.86,119.94,121.02,621401,USD
2019-07-31,120.19,120.19,114.84,117.56,532978,USD
2019-08-01,116.61,118.34,115.65,118.02,316584,USD
2019-08-04,116.44,119.03,116.25,117.08,462482,USD
2019-08-05,117.55,120.81,117.38,119.72,356431,USD
2019-08-06,119.1,122.26,118.7,121.66,268721,USD
2019-08-07,122.48,124.0,121.59,122.87,374310,USD
2019-08-08,122.74,123.23,121.05,121.08,186567,USD
2019-08-11,121.02,121.68,119.92,120.02,135552,USD
2019-08-12,119.78,121.81,119.05,121.22,216331,USD
2019-08-13,120.01,120.73,118.99,119.09,375783,USD
2019-08-14,119.25,120.25,117.95,118.33,238377,USD
2019-08-15,118.91,120.74,118.78,120.25,202454,USD
2019-08-18,121.2,121.48,120.0,120.22,206391,USD
2019-08-19,120.1,120.1,118.46,118.88,141804,USD
2019-08-20,119.66,119.83,118.89,119.33,298497,USD
2019-08-21,119.83,120.72,119.04,120.54,227117,USD
2019-08-22,120.55,121.33,119.89,120.26,296120,USD
2019-08-25,120.72,121.23,119.91,120.99,237130,USD
2019-08-26,121.48,121.83,120.81,121.5,182973,USD
2019-08-27,121.49,122.14,120.63,121.86,247153,USD
2019-08-28,122.88,123.44,121.15,121.69,184620,USD
2019-08-29,122.38,123.32,121.23,122.22,183744,USD
2019-09-02,120.81,121.08,118.57,119.65,265545,USD
2019-09-03,120.73,122.05,120.19,121.94,160881,USD
2019-09-04,122.99,123.21,120.98,121.2,230128,USD
2019-09-05,120.96,121.84,120.32,120.88,239256,USD
2019-09-08,121.57,121.57,118.77,119.1,232906,USD
2019-09-09,118.98,119.31,116.12,119.11,258227,USD
2019-09-10,118.9,119.53,116.72,118.63,231671,USD
2019-09-11,119.08,119.7,117.98,118.05,163331,USD
2019-09-12,118.55,118.97,117.66,118.4,270017,USD
2019-09-15,117.72,117.72,115.87,116.48,192124,USD
2019-09-16,116.2,117.86,116.06,117.01,222160,USD
2019-09-17,116.89,118.95,116.56,118.3,253484,USD
2019-09-18,118.33,118.95,117.64,117.85,304304,USD
2019-09-19,118.14,119.02,117.56,118.05,528359,USD
2019-09-22,117.61,118.97,117.61,118.1,173948,USD
2019-09-23,118.6,119.49,118.25,118.51,198378,USD
2019-09-24,118.71,119.44,118.67,119.12,226637,USD
2019-09-25,119.57,119.68,118.52,118.92,117884,USD
2019-09-26,119.21,119.31,118.06,118.67,149159,USD
2019-09-29,118.95,119.41,117.84,118.45,230822,USD
2019-09-30,119.29,119.73,117.5,117.67,143491,USD
2019-10-01,117.0,117.02,115.06,115.35,234759,USD
2019-10-02,115.0,115.23,113.78,114.99,241121,USD
2019-10-03,115.31,117.62,115.09,117.33,162667,USD
2019-10-06,116.69,117.44,116.23,116.56,229873,USD
2019-10-07,116.01,117.76,114.51,114.78,221942,USD
2019-10-08,115.82,116.89,115.38,116.48,134746,USD
2019-10-09,116.48,117.24,115.73,116.31,102448,USD
2019-10-10,116.92,118.0,116.24,116.33,213734,USD
2019-10-13,116.32,116.88,115.74,115.85,131911,USD
2019-10-14,116.34,116.64,115.05,115.18,182756,USD
2019-10-15,115.14,115.6,114.4,115.47,213726,USD
2019-10-16,115.57,117.08,115.5,116.55,153825,USD
2019-10-17,116.42,118.0,116.42,117.78,219124,USD
2019-10-20,118.37,119.11,117.8,117.9,143014,USD
2019-10-21,118.03,118.05,116.62,116.66,85350,USD
2019-10-22,116.53,117.93,116.5,117.37,110689,USD
2019-10-23,117.45,118.12,116.74,117.34,122463,USD
2019-10-24,117.21,118.62,117.21,117.88,120328,USD
2019-10-27,117.96,118.8,117.84,118.2,134129,USD
2019-10-28,117.45,119.13,117.45,118.51,147331,USD
2019-10-29,118.58,119.63,117.77,119.25,148246,USD
2019-10-30,119.04,119.63,117.62,118.15,316017,USD
2019-10-31,113.67,115.56,109.54,110.79,598773,USD
2019-11-03,111.01,111.76,108.41,108.67,556284,USD
2019-11-04,109.21,110.25,108.43,108.66,386560,USD
2019-11-05,108.67,109.81,108.42,109.49,370819,USD
2019-11-06,109.53,110.53,108.91,109.4,195460,USD
2019-11-07,109.31,110.93,108.87,109.0,303487,USD
2019-11-10,108.48,109.75,108.48,108.58,181486,USD
2019-11-11,108.64,109.3,108.16,108.22,185369,USD
2019-11-12,108.32,110.07,108.02,109.62,385407,USD
2019-11-13,109.48,110.58,109.48,110.47,223955,USD
2019-11-14,110.73,110.73,109.7,109.96,307326,USD
2019-11-17,109.92,110.95,109.88,110.34,352107,USD
2019-11-18,110.73,111.4,110.45,110.5,258673,USD
2019-11-19,110.12,111.85,110.12,110.7,961396,USD
2019-11-20,111.23,112.05,110.18,111.3,244217,USD
2019-11-21,111.65,111.67,110.0,110.12,151654,USD
2019-11-24,110.26,111.06,110.17,110.95,264408,USD
2019-11-25,111.52,112.65,110.97,112.56,225281,USD
2019-11-26,112.99,113.58,112.63,112.83,145542,USD
2019-11-28,112.64,113.21,111.94,112.12,89345,USD
2019-12-01,112.52,112.72,111.62,112.01,291029,USD
2019-12-02,111.51,113.31,111.14,112.71,250620,USD
2019-12-03,112.74,113.48,111.74,111.78,284584,USD
2019-12-04,111.89,112.66,111.65,111.95,243742,USD
2019-12-05,112.79,113.0,111.8,112.08,322658,USD
2019-12-08,112.31,112.84,111.69,112.63,256939,USD
2019-12-09,112.47,112.83,111.34,111.94,219460,USD
2019-12-10,111.97,112.77,111.9,112.57,141102,USD
2019-12-11,112.51,114.44,112.51,114.18,406995,USD
2019-12-12,113.98,115.39,113.33,113.97,380394,USD
2019-12-15,114.46,114.71,113.3,114.32,194198,USD
2019-12-16,114.13,114.75,113.06,113.35,248897,USD
2019-12-17,113.35,113.36,112.36,113.08,204047,USD
2019-12-18,113.16,113.48,112.8,113.26,172102,USD
2019-12-19,113.72,115.14,113.72,114.96,473535,USD
2019-12-22,114.93,115.37,114.23,115.37,144269,USD
2019-12-23,115.31,115.64,114.68,114.73,63750,USD
2019-12-25,114.74,114.86,113.8,114.82,110947,USD
2019-12-26,115.22,115.35,114.15,115.02,87765,USD
2019-12-29,114.94,115.8,114.67,115.76,193016,USD
2019-12-30,115.72,116.2,115.02,115.62,310703,USD
2020-01-01,115.5,116.48,112.93,113.68,362728,USD
2020-01-02,112.81,114.84,112.81,114.04,221476,USD
