Date,ATR_Open_average,ATR_Open_max,ATR_Open_volatility,ATR_Open_change,ATR_High_average,ATR_High_max,ATR_High_volatility,ATR_High_change,ATR_Low_average,ATR_Low_max,ATR_Low_volatility,ATR_Low_change,ATR_Close_average,ATR_Close_max,ATR_Close_volatility,ATR_Close_change,ATR_Volume_average,ATR_Volume_max,ATR_Volume_volatility,ATR_Volume_change
2016-01-03,70.64666666666666,72.0,2.069999999999993,-2.069999999999993,71.24833333333333,72.21,1.8499999999999943,-1.8499999999999943,70.155,71.23,2.160000000000011,-2.160000000000011,70.73166666666667,72.08,2.319999999999993,-2.260000000000005,366750,565025,276775,23747
2016-01-10,69.265,70.31,2.7900000000000063,-2.7900000000000063,69.7975,70.92,2.6599999999999966,-2.6599999999999966,68.3375,69.33,2.3299999999999983,-2.3299999999999983,68.8925,69.84,1.7700000000000102,-1.7700000000000102,362600,439129,152431,57641
2016-01-17,67.85,68.85,1.5,-1.1799999999999926,68.336,68.85,1.0899999999999892,-1.0899999999999892,66.83,67.3,0.9699999999999989,-0.6599999999999966,67.552,68.25,1.5499999999999972,-1.2600000000000051,276206,330452,108564,108564
2016-01-24,70.37,72.29,4.650000000000006,4.650000000000006,71.838,72.91,2.289999999999992,2.069999999999993,70.03,71.59,4.02000000000001,4.02000000000001,71.324,72.9,2.6500000000000057,1.8200000000000074,514998,796075,511346,-297506
2016-01-31,71.968,73.01,2.450000000000003,-0.9200000000000017,73.278,74.66,2.8799999999999955,1.2800000000000011,70.724,71.88,2.0,-0.9200000000000017,72.172,73.15,2.030000000000001,1.710000000000008,385665,522006,240123,196263
2016-02-07,73.795,74.82,2.3299999999999983,2.3299999999999983,75.3675,75.65,0.6300000000000097,0.38000000000000966,73.16,73.7,1.4000000000000057,1.4000000000000057,74.55499999999999,75.3,1.1099999999999994,0.8900000000000006,444412,581191,274475,-274475
2016-02-14,74.114,76.05,2.75,-2.5799999999999983,74.45,76.19,2.4399999999999977,-2.3100000000000023,72.724,73.47,1.9099999999999966,-1.0300000000000011,73.26,73.95,1.1500000000000057,-1.1500000000000057,421891,700703,440324,624
2016-02-21,73.51,74.78,2.3599999999999994,0.6500000000000057,74.172,74.95,1.9300000000000068,1.3599999999999994,72.808,73.48,1.4300000000000068,0.9300000000000068,73.632,74.34,1.4699999999999989,0.8399999999999892,213263,264947,105507,-51918
2016-02-28,74.77,75.87,1.8299999999999983,1.8299999999999983,75.536,76.42,1.5900000000000034,1.3400000000000034,74.322,75.14,1.3900000000000006,1.3400000000000034,75.166,76.0,1.5900000000000034,1.2199999999999989,251636,354469,199645,-16957
2016-03-06,75.848,76.28,0.769999999999996,0.060000000000002274,76.374,76.81,0.6800000000000068,0.07000000000000739,75.148,75.51,0.6300000000000097,-0.2400000000000091,75.606,75.85,0.6099999999999994,-0.5500000000000114,268394,313314,76518,49189
2016-03-13,76.268,76.99,2.2099999999999937,2.2099999999999937,77.332,77.99,1.4899999999999949,1.4899999999999949,75.81400000000001,76.82,2.779999999999987,2.779999999999987,76.848,77.38,1.2199999999999989,1.2199999999999989,336449,611749,422902,-153238
2016-03-20,77.6425,77.96,0.9599999999999937,0.6800000000000068,78.4175,78.89,0.9000000000000057,-0.04999999999999716,76.985,77.45,0.8100000000000023,0.8100000000000023,77.97749999999999,78.31,0.9200000000000017,0.2400000000000091,255654,320277,112679,78781
2016-03-27,78.562,79.23,1.2900000000000063,1.2900000000000063,79.12,79.67,0.960000000000008,0.960000000000008,78.03399999999999,78.71,1.3299999999999983,1.3299999999999983,78.73,79.09,0.6800000000000068,0.3999999999999915,332599,624428,447444,-447444
2016-04-03,77.904,78.32,0.6799999999999926,-0.3499999999999943,78.126,78.78,1.1400000000000006,-0.6099999999999994,77.044,77.5,0.8400000000000034,-0.3400000000000034,77.55799999999999,77.98,0.6300000000000097,-0.37999999999999545,207686,250278,78519,-46929
2016-04-10,78.256,79.0,1.5300000000000011,1.5300000000000011,78.692,79.66,1.9599999999999937,1.9599999999999937,77.782,78.93,2.0600000000000023,1.960000000000008,78.622,79.63,2.039999999999992,2.039999999999992,210691,246953,74459,20099
2016-04-17,79.358,79.9,1.2800000000000011,-0.960000000000008,79.898,80.32,0.8999999999999915,-0.8999999999999915,78.84400000000001,79.26,0.8299999999999983,-0.5100000000000051,79.3,79.77,1.1899999999999977,-0.4300000000000068,243542,304845,115969,-38048
2016-04-24,78.392,79.89,4.109999999999999,-3.539999999999992,79.194,80.36,3.030000000000001,-2.6700000000000017,77.728,79.54,3.8900000000000006,-3.089999999999989,78.406,79.96,3.9599999999999937,-3.0800000000000125,473998,777825,543418,244520
2016-05-01,75.87,76.39,1.1400000000000006,-0.21999999999999886,76.44800000000001,76.81,0.9099999999999966,0.3100000000000023,75.422,75.72,0.7099999999999937,0.060000000000002274,76.04,76.55,0.9899999999999949,0.7999999999999972,461134,836239,613871,-470534
2016-05-08,77.108,77.34,0.6099999999999994,0.3499999999999943,77.616,77.98,0.6800000000000068,0.4900000000000091,76.642,77.08,0.769999999999996,0.3199999999999932,77.182,77.63,0.7999999999999972,0.3200000000000074,208285,251849,81937,-26648
2016-05-15,75.58800000000001,77.26,2.5,-1.7700000000000102,76.08,77.42,1.9399999999999977,-1.7900000000000063,74.786,75.24,1.0799999999999983,-0.5099999999999909,75.124,75.4,0.6099999999999994,-0.6099999999999994,312033,447172,226694,-226694
2016-05-22,76.1575,76.52,1.2800000000000011,1.2800000000000011,76.8425,77.19,0.6299999999999955,0.6299999999999955,75.8425,76.18,1.0300000000000011,1.0300000000000011,76.575,77.14,0.7900000000000063,0.7600000000000051,204520,257894,117609,-11412
2016-05-29,77.222,77.57,0.7099999999999937,0.09000000000000341,77.584,78.03,0.8200000000000074,0.4899999999999949,76.684,76.94,0.8700000000000045,-0.03999999999999204,77.222,77.35,0.2599999999999909,-0.1700000000000017,202954,267651,122485,-82895
2016-06-05,77.434,77.75,0.7199999999999989,0.7199999999999989,78.122,78.55,0.6799999999999926,0.1700000000000017,77.07000000000001,77.4,0.7800000000000011,-0.4099999999999966,77.596,78.2,1.4200000000000017,-0.7099999999999937,191679,274955,151511,91682
2016-06-12,76.558,77.18,1.1200000000000045,0.3500000000000085,77.088,77.98,1.3800000000000097,1.0200000000000102,76.158,77.18,1.5200000000000102,1.0800000000000125,76.646,77.62,1.3000000000000114,1.1800000000000068,247401,351289,210286,-105080
2016-06-19,77.548,79.08,3.1499999999999915,-1.6899999999999977,78.148,80.14,4.170000000000002,-2.25,76.996,79.08,4.810000000000002,-3.200000000000003,77.496,80.14,5.540000000000006,-3.0800000000000125,306967,461590,298702,114768
2016-06-26,76.85,78.99,4.089999999999989,4.089999999999989,77.88,79.73,4.040000000000006,4.040000000000006,76.435,78.5,3.969999999999999,3.969999999999999,77.6775,79.17,3.480000000000004,3.480000000000004,244985,395905,226529,-47310
2016-07-03,79.14999999999999,80.08,1.4200000000000017,1.230000000000004,79.514,80.47,1.6500000000000057,1.3700000000000045,78.606,79.88,2.0799999999999983,2.0799999999999983,79.188,80.2,1.710000000000008,1.480000000000004,166348,207013,74758,-62486
2016-07-10,80.47,80.8,0.8799999999999955,-0.8299999999999983,80.852,81.17,0.6299999999999955,-0.6299999999999955,79.96,80.36,0.7800000000000011,-0.7800000000000011,80.132,80.41,0.5,-0.5,144770,188048,94618,-50394
2016-07-17,79.888,80.06,0.5,0.18000000000000682,80.514,80.79,0.7000000000000028,0.3100000000000023,79.644,79.91,0.6899999999999977,0.5799999999999983,80.054,80.46,0.8399999999999892,0.3299999999999983,157345,235022,147880,147880
2016-07-24,79.678,80.74,2.5999999999999943,-1.7399999999999949,80.218,81.5,3.3599999999999994,-2.5799999999999983,78.448,79.88,2.8799999999999955,-2.8799999999999955,78.984,80.3,2.9599999999999937,-2.9599999999999937,355734,730458,545286,117473
2016-07-31,76.938,77.3,0.5900000000000034,-0.5200000000000102,77.32,77.59,0.6200000000000045,0.35999999999999943,76.234,76.54,0.6000000000000085,0.04999999999999716,76.554,76.78,0.6099999999999994,-0.4399999999999977,239156,406601,233982,-221501
2016-08-07,76.154,76.58,0.7099999999999937,-0.39000000000000057,76.392,76.86,0.7800000000000011,-0.5100000000000051,75.652,75.87,0.5200000000000102,-0.23999999999999488,75.876,76.22,0.7199999999999989,-0.480000000000004,136285,193328,94168,-50050
2016-08-14,75.968,76.77,1.5499999999999972,1.1799999999999926,76.5,77.22,1.5799999999999983,1.5799999999999983,75.67,76.4,1.3900000000000006,1.3200000000000074,76.332,77.1,1.9399999999999977,1.9399999999999977,188103,220878,76317,-41671
2016-08-21,77.722,78.5,1.2800000000000011,1.0900000000000034,78.468,79.07,1.3299999999999983,1.1299999999999955,77.694,78.5,1.2800000000000011,1.230000000000004,78.048,78.78,1.4399999999999977,1.4399999999999977,251484,376215,212792,-148989
2016-08-28,78.4775,78.78,0.6599999999999966,-0.3100000000000023,78.8475,79.18,0.8800000000000097,0.060000000000002274,78.035,78.59,1.1000000000000085,-0.4900000000000091,78.45,79.16,1.1899999999999977,0.46999999999999886,235347,279706,80842,54092
2016-09-04,79.008,80.52,3.519999999999996,-2.4399999999999977,79.638,80.55,1.9899999999999949,-1.25,78.34,79.18,2.180000000000007,-1.9200000000000017,78.986,80.29,2.8300000000000125,-0.9499999999999886,268900,327271,145189,-55614
2016-09-11,77.626,78.08,0.7800000000000011,-0.1799999999999926,78.186,78.8,1.039999999999992,0.4299999999999926,77.342,77.89,0.8299999999999983,0.75,77.804,78.61,1.2399999999999949,1.0699999999999932,220647,310303,160331,-13885
2016-09-18,78.966,79.17,0.480000000000004,-0.4099999999999966,79.238,79.51,0.7000000000000028,-0.4399999999999977,78.308,78.7,0.8599999999999994,-0.6700000000000017,78.69,79.46,1.3999999999999915,-0.6599999999999966,284321,413240,256127,8112
2016-09-25,77.68599999999999,78.36,1.2900000000000063,-0.29000000000000625,78.144,78.65,1.210000000000008,-0.7000000000000028,77.124,77.61,1.0100000000000051,-0.7600000000000051,77.666,78.61,1.4000000000000057,-0.37999999999999545,345522,631363,455812,-329837
2016-10-02,76.5,77.24,1.1999999999999886,-1.1999999999999886,76.82600000000001,77.68,1.1600000000000108,-1.1600000000000108,75.712,76.0,0.8100000000000023,-0.3199999999999932,76.088,76.64,1.0,-0.14999999999999147,196346,279517,163148,-126311
2016-10-09,75.52,76.02,1.2399999999999949,0.3999999999999915,76.104,76.47,0.75,0.75,75.164,76.01,1.460000000000008,1.460000000000008,75.71,76.2,1.1300000000000097,1.1300000000000097,152669,211211,129757,-71541
2016-10-16,76.702,78.1,1.9799999999999898,1.3199999999999932,77.218,78.1,1.3199999999999932,1.0999999999999943,75.96600000000001,76.55,1.1599999999999966,0.5699999999999932,76.6,77.16,1.1899999999999977,0.6099999999999994,153156,219684,121800,37910
2016-10-23,75.65,77.0,4.069999999999993,-4.069999999999993,76.12,77.19,3.299999999999997,-3.25,74.292,76.2,5.320000000000007,-5.310000000000002,74.80199999999999,77.0,5.560000000000002,-5.560000000000002,330117,644902,470293,457775
2016-10-30,71.384,72.57,1.9899999999999949,0.7599999999999909,72.22,74.35,2.8900000000000006,2.5,70.932,72.29,1.970000000000013,1.970000000000013,71.63,74.33,3.7099999999999937,3.7099999999999937,305132,458830,240390,113335
2016-11-06,73.688,75.6,4.239999999999995,-1.9899999999999949,74.682,76.07,3.9399999999999977,-2.529999999999987,72.578,74.53,3.780000000000001,-1.759999999999991,73.528,75.74,4.309999999999988,-2.2299999999999898,416229,636142,328137,-198667
2016-11-13,73.562,73.7,0.28000000000000114,0.21999999999999886,73.96000000000001,74.26,0.5400000000000063,0.46000000000000796,72.982,73.34,0.5400000000000063,0.3500000000000085,73.684,74.24,0.8599999999999994,0.8599999999999994,203156,229859,47233,-7720
2016-11-20,75.47749999999999,76.1,1.5,1.5,76.46000000000001,77.28,1.6299999999999955,1.6299999999999955,75.225,76.02,2.0600000000000023,2.0600000000000023,76.02,76.47,0.980000000000004,0.980000000000004,279312,452449,328848,-105475
2016-11-27,74.932,76.55,3.3499999999999943,-1.7099999999999937,75.386,76.86,2.519999999999996,-1.730000000000004,73.438,74.8,2.3400000000000034,-1.6400000000000006,74.134,75.68,2.5,-2.3000000000000114,371375,467574,144781,23498
2016-12-04,73.62,74.85,3.009999999999991,1.539999999999992,74.54,75.18,1.3200000000000074,1.2900000000000063,73.372,74.28,2.4399999999999977,1.0500000000000114,74.168,74.75,1.269999999999996,0.8100000000000023,402343,579332,302535,-80460
2016-12-11,73.84,74.9,1.710000000000008,-1.710000000000008,74.344,75.6,2.1999999999999886,-1.5699999999999932,73.122,74.31,1.5799999999999983,-1.5300000000000011,73.422,74.37,1.4399999999999977,-0.5700000000000074,381451,665829,394971,9611
2016-12-18,73.47,73.87,1.0100000000000051,-0.7900000000000063,73.9125,74.16,0.6599999999999966,-0.12999999999999545,73.045,73.4,0.8200000000000074,-0.5400000000000063,73.4925,73.98,0.960000000000008,-0.37000000000000455,250955,291816,130290,-108385
2016-12-25,73.8075,74.05,0.4099999999999966,-0.0799999999999983,74.35,74.69,0.6700000000000017,-0.5499999999999972,73.3975,73.57,0.3199999999999932,-0.20000000000000284,73.7575,74.17,0.7199999999999989,-0.7199999999999989,193208,240270,100806,38406
2017-01-01,73.586,74.26,1.3400000000000034,-0.7600000000000051,74.354,74.72,0.75,0.14999999999999147,72.92999999999999,73.23,0.8800000000000097,0.730000000000004,73.58,74.23,1.210000000000008,0.6600000000000108,353970,419581,136439,37848
2017-01-08,73.205,73.33,0.29999999999999716,-0.01999999999999602,73.6325,73.82,0.45999999999999375,0.22999999999998977,72.7425,73.03,0.6700000000000017,0.23000000000000398,73.1725,73.5,0.6800000000000068,0.6800000000000068,181957,193161,31673,27391
2017-01-15,72.838,73.64,1.7600000000000051,-1.0,73.272,73.83,1.3199999999999932,-1.2999999999999972,72.26599999999999,73.02,1.5799999999999983,-1.4200000000000017,72.72800000000001,73.48,1.8400000000000034,-0.8900000000000006,327572,384676,123717,114429
2017-01-22,73.202,73.4,0.6099999999999994,0.2799999999999869,73.67999999999999,73.94,0.5,-0.4099999999999966,72.67999999999999,73.14,1.0400000000000063,-0.6900000000000119,73.294,73.54,0.8000000000000114,-0.8000000000000114,294502,342247,75448,75448
2017-01-29,73.452,73.8,0.9299999999999926,0.6599999999999966,73.862,74.13,0.8199999999999932,0.7099999999999937,72.994,73.5,1.2099999999999937,0.8299999999999983,73.474,73.94,0.9699999999999989,0.37999999999999545,395032,669505,414980,-414980
2017-02-05,73.752,75.22,2.5999999999999943,1.8799999999999955,74.55,76.2,2.730000000000004,1.9699999999999989,73.364,74.36,1.9200000000000017,1.7099999999999937,73.81400000000001,74.79,2.0600000000000023,1.7000000000000028,559262,1160077,799195,79128
2017-02-12,74.0125,74.42,1.019999999999996,0.01999999999999602,74.275,74.55,0.6299999999999955,0.14999999999999147,73.3625,73.72,0.8599999999999994,-0.25,73.7825,74.2,1.0,0.07000000000000739,385106,522848,255863,-113338
2017-02-19,74.12,74.47,0.6899999999999977,0.18999999999999773,74.708,75.02,0.5300000000000011,0.35999999999999943,73.916,74.1,0.45999999999999375,0.23999999999999488,74.36200000000001,74.59,0.46999999999999886,-0.10999999999999943,225619,251809,63082,63082
2017-02-26,75.234,75.69,1.4200000000000017,1.2000000000000028,75.844,76.24,1.5899999999999892,1.4399999999999977,75.066,75.53,1.5799999999999983,1.519999999999996,75.614,76.06,1.5499999999999972,1.1400000000000006,337898,390261,91866,-88133
2017-03-05,75.924,76.8,1.519999999999996,1.259999999999991,76.496,77.0,1.0600000000000023,1.0600000000000023,75.602,76.16,0.9799999999999898,0.9799999999999898,76.16,76.79,1.3200000000000074,1.2800000000000011,377556,452664,230016,-230016
2017-03-12,76.784,77.3,1.6700000000000017,1.5400000000000063,77.47,77.87,0.8500000000000085,0.8500000000000085,76.442,76.83,1.480000000000004,1.4000000000000057,77.134,77.84,1.3100000000000023,1.3100000000000023,266275,405118,218373,-18422
2017-03-19,76.842,77.72,1.9099999999999966,-1.9099999999999966,77.412,77.83,1.0699999999999932,-1.0699999999999932,76.318,76.63,0.8199999999999932,-0.8199999999999932,76.804,77.16,0.539999999999992,-0.14999999999999147,199809,321349,190726,-65176
2017-03-26,76.87,77.11,0.7000000000000028,0.5300000000000011,77.30199999999999,77.46,0.3499999999999943,0.1799999999999926,76.4,76.56,0.35999999999999943,-0.12999999999999545,76.882,77.07,0.6199999999999903,-0.6199999999999903,226211,424866,295531,187119
2017-04-02,76.382,77.04,1.1000000000000085,-0.5600000000000023,76.84400000000001,77.04,0.5,0.04999999999999716,75.88,76.02,0.5300000000000011,-0.030000000000001137,76.48,76.89,0.8100000000000023,0.15000000000000568,288527,372790,157992,-76408
2017-04-09,76.3925,76.89,0.8599999999999994,-0.5699999999999932,76.945,77.3,0.7099999999999937,0.3299999999999983,76.025,76.42,0.6599999999999966,-0.5400000000000063,76.555,77.27,1.4699999999999989,0.3499999999999943,221509,263749,98905,-43069
2017-04-16,77.802,78.97,2.019999999999996,1.9299999999999926,78.308,78.97,1.289999999999992,1.289999999999992,77.244,77.72,0.7800000000000011,0.7800000000000011,77.84599999999999,78.3,0.75,0.730000000000004,250460,354339,168952,54131
2017-04-23,79.31,80.08,1.730000000000004,1.730000000000004,79.88,80.6,1.4299999999999926,1.4299999999999926,78.538,79.21,1.5899999999999892,1.5899999999999892,79.378,80.3,1.5699999999999932,1.0,496745,974597,736985,684109
2017-04-30,80.644,82.08,2.730000000000004,2.730000000000004,81.568,82.61,1.9500000000000028,1.9299999999999926,80.386,81.72,2.8299999999999983,2.8299999999999983,81.292,82.51,2.3100000000000023,2.3100000000000023,422395,488751,114277,-76392
2017-05-07,82.446,82.61,0.35999999999999943,-0.1799999999999926,82.94,83.04,0.22000000000001307,0.04000000000000625,82.122,82.25,0.4300000000000068,0.0799999999999983,82.58800000000001,82.87,0.4399999999999977,0.14999999999999147,272382,311474,99466,-90621
2017-05-14,82.264,82.58,0.5300000000000011,-0.3299999999999983,82.69,82.98,0.5799999999999983,0.18000000000000682,81.814,82.23,1.1099999999999994,-0.18000000000000682,82.482,82.84,0.7000000000000028,0.04999999999999716,274692,331890,120968,27532
2017-05-21,83.49000000000001,84.15,1.1500000000000057,1.1500000000000057,84.0225,84.63,1.1099999999999994,0.9699999999999989,83.27250000000001,84.06,1.2600000000000051,1.0900000000000034,83.775,84.37,1.1800000000000068,1.1800000000000068,188287,204255,45950,-45950
2017-05-28,85.412,86.4,2.2700000000000102,1.9699999999999989,85.99000000000001,87.09,2.450000000000003,2.450000000000003,84.94800000000001,85.78,1.980000000000004,1.980000000000004,85.598,86.33,1.789999999999992,1.309999999999988,238166,285365,114566,13234
2017-06-04,85.452,85.83,0.7199999999999989,-0.5900000000000034,85.904,85.99,0.18999999999999773,0.15000000000000568,85.006,85.18,0.3200000000000074,-0.18999999999999773,85.502,85.69,0.4399999999999977,-0.04000000000000625,264645,366697,181747,-103652
2017-06-11,85.948,86.32,0.7999999999999972,0.45999999999999375,86.494,86.87,0.6899999999999977,0.6899999999999977,85.56,86.04,1.1400000000000006,0.45000000000000284,86.272,86.75,0.7999999999999972,0.5699999999999932,241673,450842,284251,-12086
2017-06-18,86.926,86.97,0.14000000000000057,0.01999999999999602,87.55,87.94,0.7599999999999909,0.4099999999999966,86.51,86.65,0.3200000000000074,-0.04000000000000625,86.92999999999999,87.14,0.3400000000000034,0.25,274792,474255,307893,66799
2017-06-25,86.994,87.21,0.3399999999999892,0.20999999999999375,87.402,87.67,0.5400000000000063,0.1599999999999966,86.41,86.89,1.1099999999999994,0.5499999999999972,86.746,87.08,0.7099999999999937,0.7099999999999937,182213,238489,119699,-69244
2017-07-02,87.355,87.95,1.1200000000000045,1.0,88.215,89.07,1.5699999999999932,1.5699999999999932,86.9375,87.48,1.0400000000000063,1.0400000000000063,87.7475,88.3,1.009999999999991,1.009999999999991,282384,394067,150160,2482
2017-07-09,88.948,89.5,1.3100000000000023,1.3100000000000023,89.422,89.97,1.3900000000000006,1.3900000000000006,88.424,89.23,1.480000000000004,1.480000000000004,89.0,89.79,1.6200000000000045,1.6200000000000045,241386,305868,163430,118636
2017-07-16,89.78399999999999,90.32,1.3799999999999955,-0.46000000000000796,90.252,90.79,1.2000000000000028,-0.8199999999999932,89.176,89.68,1.0900000000000034,-0.4899999999999949,89.7,90.09,0.6300000000000097,-0.28000000000000114,331746,395267,123731,111578
2017-07-23,86.576,89.96,7.719999999999999,-7.719999999999999,86.926,89.96,6.459999999999994,-6.459999999999994,85.05799999999999,88.52,7.829999999999998,-7.829999999999998,85.598,88.69,7.759999999999991,-7.759999999999991,624575,964181,646387,367259
2017-07-30,82.178,82.55,1.5499999999999972,1.5499999999999972,82.738,82.95,0.5300000000000011,0.1599999999999966,81.718,82.39,1.4099999999999966,1.4099999999999966,82.422,82.74,0.4899999999999949,0.22999999999998977,294899,463374,295205,-291216
2017-08-06,82.468,82.63,0.3999999999999915,0.0,82.764,83.0,0.6500000000000057,0.06999999999999318,82.008,82.51,1.1000000000000085,0.10999999999999943,82.356,82.91,1.3999999999999915,0.1700000000000017,195827,265319,118046,-16043
2017-08-13,82.588,83.27,1.259999999999991,-0.6799999999999926,83.026,83.83,1.5300000000000011,-0.519999999999996,82.07000000000001,82.7,1.3599999999999994,-1.2099999999999937,82.414,83.55,2.0600000000000023,-1.2600000000000051,195725,248805,122542,-64656
2017-08-20,81.922,82.65,1.1500000000000057,0.6700000000000017,82.47800000000001,82.78,0.7199999999999989,0.4899999999999949,81.432,81.73,0.7800000000000011,-0.2400000000000091,81.812,82.39,1.3100000000000023,-0.2600000000000051,224496,330207,150152,51538
2017-08-27,82.755,83.8,1.8999999999999915,1.8999999999999915,83.235,84.0,1.9000000000000057,1.9000000000000057,82.4025,83.42,1.8500000000000085,1.8500000000000085,83.115,83.88,1.8799999999999955,1.8799999999999955,221208,267379,84337,-43246
2017-09-03,83.566,84.32,1.3599999999999994,0.5999999999999943,84.118,85.17,1.8400000000000034,1.0,82.952,84.0,1.6800000000000068,0.8199999999999932,83.73,85.12,2.2700000000000102,1.8700000000000045,218379,241054,48580,17325
2017-09-10,84.752,84.97,0.45999999999999375,0.03999999999999204,85.24,85.67,0.7199999999999989,0.23000000000000398,84.492,84.74,0.5799999999999983,0.030000000000001137,84.944,85.44,0.9399999999999977,0.23999999999999488,241765,399786,233460,-15861
2017-09-17,85.824,86.2,0.769999999999996,0.3199999999999932,86.384,86.89,1.1299999999999955,1.1299999999999955,85.452,85.87,0.9200000000000017,0.3999999999999915,86.062,86.76,1.2000000000000028,1.2000000000000028,207913,260352,93043,-37514
2017-09-24,86.818,87.1,0.7399999999999949,-0.28999999999999204,87.372,87.97,1.039999999999992,0.6500000000000057,86.318,86.54,0.45000000000000284,0.09000000000000341,86.912,87.88,1.5699999999999932,1.1299999999999955,237132,272939,73196,64264
2017-10-01,88.278,88.68,0.7800000000000011,0.7800000000000011,88.688,88.85,0.4099999999999966,0.3500000000000085,87.932,88.33,0.7099999999999937,0.4399999999999977,88.35,88.58,0.4399999999999977,0.029999999999986926,183026,231660,92228,-62892
2017-10-08,88.638,88.92,0.4399999999999977,0.3200000000000074,88.938,89.37,0.6600000000000108,0.06999999999999318,88.258,88.69,0.7199999999999989,-0.25,88.62,88.94,0.5799999999999983,0.46999999999999886,188142,236025,73514,49043
2017-10-15,88.986,89.3,0.789999999999992,-0.14000000000000057,89.296,89.67,0.8400000000000034,0.37000000000000455,88.6,88.92,0.6000000000000085,0.21000000000000796,88.89,89.2,0.6000000000000085,0.04999999999999716,217758,418943,284190,243598
2017-10-22,88.76,89.4,1.940000000000012,-1.6000000000000085,89.066,89.63,2.039999999999992,-2.039999999999992,87.452,88.83,2.9399999999999977,-2.5799999999999983,88.188,89.12,2.660000000000011,-2.660000000000011,283603,531677,342426,71225
2017-10-29,86.958,87.83,1.5799999999999983,0.769999999999996,87.41,88.12,1.0400000000000063,-0.21999999999999886,86.386,87.21,1.529999999999987,-0.4399999999999977,86.774,87.41,1.5600000000000023,-1.2199999999999989,300237,474897,258929,-203145
2017-11-05,85.14,85.85,1.5,-1.2299999999999898,85.8,86.6,1.4899999999999949,-0.3499999999999943,84.838,85.64,1.4200000000000017,-0.769999999999996,85.342,85.73,0.9699999999999989,-0.12999999999999545,219399,326994,180334,-170858
2017-11-12,85.66,86.03,0.6500000000000057,0.23000000000000398,86.208,86.5,0.6099999999999994,0.5400000000000063,85.328,85.6,0.519999999999996,0.1599999999999966,85.664,86.11,0.6400000000000006,-0.14000000000000057,199136,264401,106943,62836
2017-11-19,86.0975,86.61,1.1200000000000045,0.45000000000000284,86.695,87.0,0.6599999999999966,0.18000000000000682,85.645,86.37,1.2700000000000102,1.0500000000000114,86.345,86.74,0.8900000000000006,0.19999999999998863,271522,506685,398442,-175803
2017-11-26,87.624,88.33,1.2199999999999989,0.5100000000000051,88.36,88.99,1.519999999999996,1.230000000000004,86.87,87.32,0.8899999999999864,0.8899999999999864,87.708,88.41,1.5,1.1500000000000057,231145,290376,96102,95710
2017-12-03,88.372,88.94,1.0699999999999932,-0.45999999999999375,88.638,89.16,1.289999999999992,-1.289999999999992,87.644,88.12,1.2600000000000051,-1.0300000000000011,88.146,89.0,1.7199999999999989,-1.7199999999999989,251785,258943,17577,-14502
2017-12-10,86.854,87.3,1.25,-0.04999999999999716,87.468,87.89,0.7000000000000028,0.3499999999999943,86.17,86.59,0.8900000000000006,0.7800000000000011,86.608,86.98,0.6099999999999994,0.13999999999998636,374874,474904,223084,-172947
2017-12-17,86.305,86.84,1.1599999999999966,-0.6199999999999903,86.9825,87.65,1.2900000000000063,-1.2900000000000063,85.935,86.3,0.8699999999999903,-0.8699999999999903,86.1425,86.58,0.8199999999999932,-0.6799999999999926,246189,367204,204590,-204590
2017-12-24,85.985,86.88,1.4599999999999937,1.0899999999999892,86.535,87.0,1.1800000000000068,0.5499999999999972,85.545,86.24,1.1799999999999926,1.019999999999996,86.01,86.75,1.3599999999999994,0.8900000000000006,150298,207000,92264,18386
2017-12-31,86.812,87.26,0.9699999999999989,0.4200000000000017,87.56400000000001,87.93,0.6100000000000136,0.19000000000001194,86.292,86.82,1.019999999999996,0.4899999999999949,86.864,87.2,1.1899999999999977,0.18999999999999773,264895,362860,184994,107952
2018-01-07,86.2975,87.28,1.8400000000000034,-0.9099999999999966,86.82249999999999,87.76,1.6600000000000108,-0.8200000000000074,85.71,86.36,1.2000000000000028,-0.480000000000004,86.2175,86.56,0.8900000000000006,0.1700000000000017,233626,311574,150093,-102601
2018-01-14,87.178,88.61,2.25,2.25,87.822,88.7,1.5,1.4099999999999966,86.554,87.3,1.289999999999992,0.5899999999999892,87.27799999999999,88.61,2.3700000000000045,1.2199999999999989,254561,369877,192389,115748
2018-01-21,88.372,89.48,2.0400000000000063,1.2900000000000063,88.902,89.5,1.75,1.480000000000004,87.478,88.46,2.1099999999999994,0.6300000000000097,88.42,89.43,1.8300000000000125,0.13000000000000966,242765,339050,180174,95654
2018-01-28,86.882,88.09,2.990000000000009,-2.3500000000000085,87.32,88.1,2.0999999999999943,-1.9599999999999937,85.708,87.05,3.6700000000000017,-3.6700000000000017,86.226,87.69,4.310000000000002,-4.310000000000002,347397,519129,301338,89258
2018-02-04,82.94,83.86,1.769999999999996,0.18000000000000682,83.92999999999999,84.91,2.319999999999993,-0.45000000000000284,81.612,83.73,3.760000000000005,0.18000000000000682,82.756,83.85,2.469999999999999,-1.190000000000012,335452,367204,63739,-49256
2018-02-11,89.3875,91.04,4.290000000000006,4.290000000000006,91.825,92.32,1.4499999999999886,-0.1799999999999926,88.9275,90.49,4.189999999999998,4.189999999999998,90.845,91.83,2.1099999999999994,2.1099999999999994,570753,1101994,768632,-766429
2018-02-18,91.008,91.34,0.9000000000000057,0.04000000000000625,91.696,92.28,1.210000000000008,-0.7099999999999937,90.292,90.72,0.789999999999992,-0.3299999999999983,90.72,91.06,0.9000000000000057,-0.28000000000000114,282177,371976,122054,-121636
2018-02-25,89.55,90.73,1.990000000000009,-1.4200000000000017,90.444,90.73,0.8400000000000034,-0.030000000000001137,88.914,89.44,1.1400000000000006,-0.12999999999999545,89.60000000000001,90.4,1.4000000000000057,0.9000000000000057,267510,306929,75705,-55314
2018-03-04,90.278,90.7,0.7600000000000051,0.3299999999999983,90.99,91.14,0.3100000000000023,-0.06999999999999318,89.68,90.4,1.1200000000000045,1.1200000000000045,90.502,90.87,0.9200000000000017,0.010000000000005116,289115,367990,186933,-114764
2018-03-11,90.556,91.27,1.2099999999999937,-1.2099999999999937,91.084,92.1,1.7399999999999949,-1.7399999999999949,89.74,90.27,0.8399999999999892,-0.8199999999999932,90.192,90.5,0.5400000000000063,-0.5400000000000063,268869,424819,269639,-102340
2018-03-18,88.91,90.02,2.3599999999999994,-2.3599999999999994,89.568,90.49,1.9399999999999977,-1.9399999999999977,88.15,89.67,2.980000000000004,-2.6000000000000085,88.462,89.78,3.010000000000005,-1.5700000000000074,254037,279270,63381,31546
2018-03-25,88.7125,89.37,1.2900000000000063,0.8500000000000085,89.5275,90.34,1.4399999999999977,0.6099999999999994,87.7425,88.36,1.1899999999999977,-0.45000000000000284,88.55,89.83,1.8999999999999915,-0.14999999999999147,229758,287331,102909,-68842
2018-04-01,89.298,90.3,1.8699999999999903,0.7199999999999989,90.334,90.85,0.8999999999999915,0.1700000000000017,88.128,89.28,2.430000000000007,0.9000000000000057,89.614,90.4,1.9000000000000057,0.3400000000000034,344699,471701,195302,135039
2018-04-08,92.342,93.2,2.450000000000003,2.280000000000001,93.396,94.66,2.019999999999996,1.5600000000000023,91.948,92.96,2.8599999999999994,2.8599999999999994,92.946,94.31,2.0600000000000023,1.5900000000000034,277812,456727,259625,-259625
2018-04-15,95.06,96.15,1.8700000000000045,0.4299999999999926,95.808,96.39,1.25,-0.9599999999999937,94.346,95.18,1.3900000000000006,0.30999999999998806,95.066,96.13,1.7800000000000011,-1.7800000000000011,285266,507151,342157,-317616
2018-04-22,93.656,94.6,1.5799999999999983,-0.8699999999999903,94.216,94.74,1.039999999999992,-0.710000000000008,92.53399999999999,93.05,1.1700000000000017,0.28000000000000114,93.31400000000001,93.5,0.3499999999999943,0.3199999999999932,486569,907788,609105,505846
2018-04-29,92.58200000000001,94.0,3.1599999999999966,-1.0799999999999983,93.352,94.0,1.230000000000004,-0.5799999999999983,91.864,92.73,1.8900000000000006,-0.4300000000000068,92.456,93.54,2.4200000000000017,-0.7400000000000091,434796,631054,415940,-212661
2018-05-06,93.16199999999999,94.19,2.1899999999999977,1.4200000000000017,93.764,94.71,1.9199999999999875,1.9199999999999875,92.282,93.15,1.7800000000000011,0.7400000000000091,93.23400000000001,94.29,2.530000000000001,1.6099999999999994,377709,492917,237345,192833
2018-05-13,93.148,94.02,1.7000000000000028,0.8499999999999943,93.91,94.41,1.2399999999999949,1.2399999999999949,92.556,93.84,2.25,2.25,93.3,94.01,1.9100000000000108,1.9100000000000108,268269,406481,244185,-244185
2018-05-20,93.97749999999999,94.28,0.6500000000000057,-0.4000000000000057,94.53,94.95,0.6800000000000068,-0.5300000000000011,93.615,93.85,0.4899999999999949,0.1799999999999926,94.03999999999999,94.09,0.13000000000000966,0.12000000000000455,150658,165822,49638,-10707
2018-05-27,93.28,94.25,1.5499999999999972,-0.3499999999999943,93.998,94.41,1.1299999999999955,-0.10999999999999943,92.572,93.06,0.8700000000000045,-0.6200000000000045,93.244,93.96,1.6400000000000006,0.5499999999999972,194014,258583,106701,-40533
2018-06-03,93.68,94.06,1.0100000000000051,-0.269999999999996,94.358,94.86,0.9599999999999937,0.35999999999999943,92.89,93.56,1.519999999999996,-0.12999999999999545,93.71,93.92,0.6800000000000068,-0.10000000000000853,353234,534002,419139,274534
2018-06-10,94.604,95.0,0.9099999999999966,0.47999999999998977,95.12,95.37,0.480000000000004,0.18999999999999773,94.064,94.39,0.7900000000000063,0.4200000000000017,94.618,94.92,0.769999999999996,0.6899999999999977,389886,505171,184750,-107710
2018-06-17,93.736,94.51,1.740000000000009,-1.1800000000000068,94.158,94.87,1.6700000000000017,-1.4200000000000017,92.852,93.94,2.519999999999996,-2.1899999999999977,93.36,94.64,2.4599999999999937,-2.069999999999993,403012,750023,464381,14907
2018-06-24,92.648,93.2,1.2000000000000028,0.5600000000000023,93.602,94.12,1.3599999999999994,0.3199999999999932,92.228,92.93,1.2700000000000102,0.4399999999999977,92.898,93.59,1.490000000000009,0.8800000000000097,277628,336590,98877,-28974
2018-07-01,94.28,94.49,0.5300000000000011,0.4900000000000091,94.895,95.63,1.25,0.5999999999999943,93.8075,94.45,1.0,0.8400000000000034,94.4275,95.1,1.1099999999999994,1.1099999999999994,213679,249933,71920,10724
2018-07-08,95.382,96.0,1.230000000000004,-0.4000000000000057,96.086,96.83,1.9500000000000028,-1.2800000000000011,94.74,95.59,2.4200000000000017,-2.0,95.138,96.11,2.819999999999993,-2.819999999999993,194233,220824,88617,-83904
2018-07-15,94.888,95.94,2.719999999999999,2.719999999999999,95.79,96.54,1.8000000000000114,1.5900000000000034,94.432,95.33,2.1700000000000017,1.6300000000000097,95.302,96.33,1.7099999999999937,0.5,181609,213372,63325,40605
2018-07-22,97.262,103.52,8.950000000000003,8.179999999999993,98.874,104.1,9.099999999999994,8.239999999999995,96.046,99.94,5.890000000000001,5.409999999999997,98.19,102.9,8.170000000000002,7.75,349477,637544,467196,306513
2018-07-29,102.70400000000001,104.01,2.3700000000000045,1.5300000000000011,103.83800000000001,104.95,2.269999999999996,1.4699999999999989,102.066,103.98,3.200000000000003,3.200000000000003,103.23,104.21,1.779999999999987,1.779999999999987,359433,588092,308264,-308264
2018-08-05,103.244,104.16,1.9200000000000017,-1.9200000000000017,104.046,104.68,1.210000000000008,-1.210000000000008,102.472,103.39,2.450000000000003,-2.450000000000003,102.838,103.9,2.5,-2.1499999999999915,278683,325603,97849,-68705
2018-08-12,101.934,102.92,1.3599999999999994,1.0300000000000011,102.566,103.52,1.8599999999999994,1.019999999999996,101.348,102.6,2.539999999999992,1.269999999999996,102.122,102.86,1.519999999999996,0.8799999999999955,216845,300646,168734,22389
2018-08-19,103.248,103.79,0.960000000000008,0.960000000000008,103.956,104.84,1.4399999999999977,0.9900000000000091,103.02,103.79,1.0500000000000114,0.960000000000008,103.544,104.54,1.6300000000000097,1.25,147982,209565,106293,-34147
2018-08-26,104.56,104.86,0.6599999999999966,0.060000000000002274,105.3925,105.77,0.5999999999999943,0.25,103.945,104.38,0.6099999999999994,0.5699999999999932,104.5,104.71,0.8199999999999932,0.8199999999999932,199966,231956,78980,-61925
2018-09-02,107.466,108.94,3.6200000000000045,3.0700000000000074,108.598,109.69,3.1899999999999977,2.5799999999999983,106.932,108.12,3.5400000000000063,3.3100000000000023,107.994,108.95,2.5700000000000074,2.180000000000007,271408,334141,121721,-111176
2018-09-09,109.688,112.3,4.039999999999992,4.039999999999992,110.746,112.31,3.5799999999999983,3.5799999999999983,109.006,110.91,3.3699999999999903,3.3699999999999903,110.39999999999999,111.97,3.450000000000003,2.780000000000001,303794,564522,462887,462887
2018-09-16,110.904,111.67,1.5,-1.0,111.502,111.89,1.0400000000000063,-0.3200000000000074,110.07,110.53,0.8599999999999994,0.01999999999999602,110.782,111.59,1.2700000000000102,-1.210000000000008,287399,473172,270542,149751
2018-09-23,108.854,110.75,2.700000000000003,-2.700000000000003,109.54599999999999,110.96,2.069999999999993,-1.759999999999991,108.014,108.62,1.25,-1.25,108.242,108.76,1.0200000000000102,-0.9900000000000091,357924,629135,420352,-70220
2018-09-30,107.70400000000001,108.51,1.3900000000000006,-0.8100000000000023,108.104,108.63,0.9899999999999949,-0.7600000000000051,107.04599999999999,107.6,1.2999999999999972,-0.7599999999999909,107.616,108.15,1.0600000000000023,-0.480000000000004,246087,361245,196554,-45642
2018-10-07,103.882,107.39,5.719999999999999,-5.719999999999999,104.588,107.39,4.430000000000007,-4.430000000000007,102.13,105.68,5.340000000000003,-4.63000000000001,102.702,105.72,4.150000000000006,-3.569999999999993,337015,456009,216422,-38051
2018-10-14,104.536,106.09,3.430000000000007,1.9500000000000028,105.408,106.09,1.3599999999999994,-1.039999999999992,103.648,104.42,1.7600000000000051,0.39000000000000057,104.636,105.6,1.6299999999999955,-1.6299999999999955,264677,439856,258648,-32032
2018-10-21,101.80199999999999,103.63,3.1799999999999926,-1.4100000000000108,102.694,104.57,3.519999999999996,-2.509999999999991,100.11,101.72,2.5799999999999983,-2.5799999999999983,101.114,103.68,3.6000000000000085,-3.5200000000000102,394532,498333,227079,-208282
2018-10-28,101.24,103.99,6.939999999999998,3.9499999999999886,103.55199999999999,105.33,3.9200000000000017,3.0700000000000074,99.978,102.39,7.329999999999998,1.9099999999999966,102.438,103.8,2.4299999999999926,0.5099999999999909,513844,959342,640756,162935
2018-11-04,104.118,104.96,3.319999999999993,2.519999999999996,105.19,105.8,1.4500000000000028,-0.4200000000000017,102.828,104.6,3.1099999999999994,0.09000000000000341,104.08,105.13,3.3599999999999994,-2.3299999999999983,332091,381287,153839,-38191
2018-11-11,103.462,106.2,4.650000000000006,3.8700000000000045,105.2,107.15,3.690000000000012,3.190000000000012,102.672,104.71,3.5,3.1699999999999875,104.142,106.28,4.200000000000003,2.8000000000000114,215520,261036,97790,-32489
2018-11-18,104.255,104.72,1.7199999999999989,0.09999999999999432,105.0075,105.43,1.0100000000000051,-0.44000000000001194,103.11,103.37,0.4300000000000068,-0.4300000000000068,103.85,104.31,0.8100000000000023,-0.6200000000000045,193881,246845,171462,-15112
2018-11-25,103.742,105.23,2.430000000000007,1.9300000000000068,104.476,105.51,2.190000000000012,2.190000000000012,102.632,103.69,2.009999999999991,0.35999999999999943,103.738,104.46,2.1599999999999966,2.1599999999999966,280416,330395,117016,78652
2018-12-02,101.795,104.86,5.429999999999993,-5.429999999999993,102.3925,104.86,5.0,-5.0,99.625,102.83,4.609999999999999,-4.609999999999999,100.8625,102.94,3.8299999999999983,-3.8299999999999983,240800,302903,141808,-112003
2018-12-09,100.1,100.42,0.5799999999999983,-0.2599999999999909,100.968,101.27,0.6199999999999903,-0.36999999999999034,98.94200000000001,99.75,1.7099999999999937,-0.23999999999999488,99.58,100.34,1.7000000000000028,-0.030000000000001137,220463,313945,146191,121307
2018-12-16,96.168,99.43,6.570000000000007,-6.570000000000007,96.946,100.27,7.409999999999997,-7.409999999999997,93.878,97.27,7.599999999999994,-7.599999999999994,94.358,97.94,8.239999999999995,-8.239999999999995,300914,588809,420523,-62741
2018-12-23,91.46,92.82,3.0999999999999943,3.0999999999999943,93.1175,94.07,2.059999999999988,2.059999999999988,91.11,92.66,2.9399999999999977,2.9399999999999977,92.72749999999999,94.07,2.299999999999997,2.299999999999997,386542,467457,220567,-147532
2018-12-30,90.6,92.73,3.760000000000005,-2.1300000000000097,92.0825,93.49,3.280000000000001,0.7599999999999909,89.39500000000001,90.58,2.319999999999993,1.1299999999999955,90.5725,91.95,2.8599999999999994,1.769999999999996,528441,637150,203565,8012
2019-01-06,93.754,94.67,1.8500000000000085,1.460000000000008,94.542,94.84,0.7400000000000091,0.7400000000000091,93.054,93.74,1.9799999999999898,1.9799999999999898,94.054,94.73,1.25,0.4399999999999977,247968,379628,183922,-169112
2019-01-13,94.82,96.1,2.1299999999999955,2.1299999999999955,96.2225,97.97,2.6200000000000045,2.569999999999993,94.6375,95.88,1.9799999999999898,1.9799999999999898,95.785,97.69,2.980000000000004,2.8799999999999955,225985,265504,78376,23552
2019-01-20,97.334,97.91,1.2099999999999937,-0.030000000000001137,98.188,98.51,0.7400000000000091,0.2600000000000051,96.486,97.28,2.1599999999999966,2.1599999999999966,97.244,97.88,1.4399999999999977,1.4399999999999977,207966,304042,187746,-86112
2019-01-27,98.454,99.42,2.0,2.0,99.274,99.98,1.5600000000000023,1.4699999999999989,97.97,99.05,1.8100000000000023,1.0999999999999943,98.884,99.85,1.9099999999999966,1.9099999999999966,241462,346521,209369,-24405
2019-02-03,101.03,101.88,1.9299999999999926,1.9299999999999926,101.986,102.45,1.3200000000000074,1.3200000000000074,100.608,101.24,1.8199999999999932,1.8199999999999932,101.54,101.95,0.8800000000000097,0.6300000000000097,224065,288010,103677,-48948
2019-02-10,102.3925,102.71,0.46999999999999886,0.01999999999999602,102.9225,103.51,1.0500000000000114,-0.23000000000000398,101.725,102.26,0.9200000000000017,-0.3999999999999915,102.2075,102.8,1.0300000000000011,-0.37999999999999545,232387,235783,6047,5769
2019-02-17,102.072,102.48,1.0100000000000051,0.4299999999999926,102.968,104.0,1.9699999999999989,0.5699999999999932,101.112,101.31,0.6700000000000017,-0.15000000000000568,102.108,103.12,1.5700000000000074,0.010000000000005116,361809,508609,226477,-42646
2019-02-24,101.59,102.21,1.0,0.04000000000000625,102.076,102.3,0.6299999999999955,0.480000000000004,100.802,100.97,0.3400000000000034,-0.30000000000001137,101.374,101.73,0.9200000000000017,0.29999999999999716,311826,375294,129377,21501
2019-03-03,100.644,101.68,2.470000000000013,-1.0800000000000125,101.52199999999999,102.27,1.6499999999999915,-0.20000000000000284,100.17999999999999,101.33,2.1200000000000045,-0.7600000000000051,100.866,102.02,2.1400000000000006,0.5499999999999972,162345,210995,83532,-35650
2019-03-10,102.608,103.22,1.1599999999999966,1.1599999999999966,103.342,103.84,0.9300000000000068,0.9300000000000068,102.276,102.85,1.039999999999992,0.7999999999999972,102.838,103.71,1.4499999999999886,1.4499999999999886,209033,287600,154775,-43913
2019-03-17,104.004,105.26,1.8400000000000034,-0.6700000000000017,105.066,105.68,1.0900000000000034,0.37999999999999545,103.238,103.57,0.7099999999999937,-0.21999999999999886,104.286,105.54,1.940000000000012,0.9100000000000108,188257,213244,49321,-24864
2019-03-24,105.858,106.91,1.9099999999999966,1.9099999999999966,106.752,107.82,1.4399999999999977,1.4399999999999977,105.386,106.21,1.509999999999991,1.509999999999991,106.25,107.71,2.269999999999996,2.269999999999996,228727,337852,207971,-28303
2019-03-31,107.862,108.65,1.0800000000000125,0.8500000000000085,108.454,109.27,1.4699999999999989,1.4699999999999989,107.332,107.98,1.3200000000000074,1.3200000000000074,108.104,108.99,1.769999999999996,1.769999999999996,174182,201174,51531,-44987
2019-04-07,109.238,110.34,2.1200000000000045,1.9500000000000028,109.782,110.69,2.1299999999999955,1.9399999999999977,108.742,109.79,2.2700000000000102,1.960000000000008,109.412,110.31,2.1500000000000057,1.730000000000004,190968,228850,62618,7061
2019-04-14,108.9175,109.81,1.8799999999999955,-1.5600000000000023,109.3675,109.97,1.5900000000000034,-0.5999999999999943,107.975,108.76,1.460000000000008,-0.5100000000000051,108.61500000000001,109.62,1.9200000000000017,-0.6899999999999977,182130,214628,64112,-31794
2019-04-21,109.86,111.38,2.3499999999999943,2.3499999999999943,110.946,111.72,1.75,1.1899999999999977,109.652,110.76,1.9300000000000068,1.730000000000004,110.438,111.42,1.9699999999999989,1.259999999999991,156402,220847,88414,-83230
2019-04-28,112.334,113.3,2.549999999999997,1.7900000000000063,113.848,115.52,3.7099999999999937,3.7099999999999937,111.674,112.73,2.799999999999997,2.6099999999999994,113.184,115.02,3.780000000000001,3.780000000000001,306430,345204,82199,-14614
2019-05-05,113.154,113.98,2.0700000000000074,-2.0700000000000074,113.96600000000001,114.68,1.5100000000000051,-1.5100000000000051,112.536,113.31,2.019999999999996,-1.8499999999999943,113.472,113.99,1.1899999999999977,-1.1700000000000017,194675,259340,99871,582
2019-05-12,113.242,113.49,0.7299999999999898,-0.20000000000000284,114.17999999999999,114.5,0.730000000000004,-0.5499999999999972,112.964,113.49,1.1299999999999955,-0.060000000000002274,113.43,114.11,1.1299999999999955,0.060000000000002274,159058,218788,102246,43049
2019-05-19,113.2775,113.77,1.2299999999999898,-0.21999999999999886,113.855,113.98,0.29000000000000625,-0.030000000000001137,112.72,113.09,1.0499999999999972,-0.3400000000000034,113.13,113.48,0.5499999999999972,-0.5499999999999972,135100,156312,38624,-38624
2019-05-26,112.85000000000001,113.41,0.8799999999999955,0.36999999999999034,113.88,115.0,1.5600000000000023,1.3900000000000006,112.484,113.41,1.9099999999999966,0.7199999999999989,113.282,114.03,1.3299999999999983,1.1299999999999955,224164,297386,168718,38172
2019-06-02,118.0,122.19,7.489999999999995,7.489999999999995,119.886,123.28,7.299999999999997,7.299999999999997,117.57,121.63,7.949999999999989,7.949999999999989,119.644,123.22,7.5,7.5,375240,483419,230193,-230193
2019-06-09,121.798,124.0,3.9599999999999937,-3.9599999999999937,122.176,124.44,3.9299999999999926,-3.5999999999999943,120.414,121.21,1.6400000000000006,-1.4199999999999875,121.036,122.58,2.489999999999995,-2.4099999999999966,225840,365595,229305,-229305
2019-06-16,119.986,120.89,1.5700000000000074,-1.0900000000000034,120.21,121.0,1.5,-1.2000000000000028,118.478,119.38,1.9499999999999886,-0.8999999999999915,119.374,119.81,1.0300000000000011,-0.7099999999999937,334980,603561,415904,-20643
2019-06-23,121.25,125.0,6.0,6.0,123.158,126.19,4.939999999999998,4.3999999999999915,120.422,123.12,4.240000000000009,4.240000000000009,122.092,124.34,5.1000000000000085,3.2099999999999937,387723,831071,594413,21768
2019-06-30,124.77,125.5,1.5,1.1299999999999955,125.3475,125.92,1.210000000000008,0.7900000000000063,123.4675,124.0,0.9899999999999949,0.4200000000000017,124.515,125.92,2.3799999999999955,0.44999999999998863,261478,402402,213771,-202786
2019-07-07,123.806,124.63,1.4799999999999898,-0.6400000000000006,124.518,125.79,1.8300000000000125,-0.5700000000000074,123.21,123.79,1.1000000000000085,-1.1000000000000085,123.6,124.07,1.1499999999999915,-1.1499999999999915,212397,240997,71111,-45407
2019-07-14,123.522,124.71,1.5899999999999892,0.39000000000000057,124.214,124.94,1.5799999999999983,0.5300000000000011,122.926,123.36,1.0600000000000023,0.519999999999996,123.522,124.36,1.2000000000000028,0.0,212651,267313,113533,-77042
2019-07-21,123.696,124.45,1.4500000000000028,0.5600000000000023,124.794,125.66,1.3799999999999955,0.9500000000000028,123.072,123.54,0.8700000000000045,0.1600000000000108,124.03,124.94,2.019999999999996,0.4299999999999926,229599,277407,93828,93828
2019-07-28,120.106,123.8,7.359999999999999,-7.359999999999999,121.198,124.57,6.22999999999999,-5.539999999999992,117.928,122.96,8.11999999999999,-6.709999999999994,119.498,123.81,6.730000000000004,-6.730000000000004,431400,621401,397845,238926
2019-08-04,120.578,122.74,5.189999999999998,3.469999999999999,122.396,124.0,3.1899999999999977,0.8700000000000045,119.728,121.59,4.210000000000008,2.5400000000000063,121.07,122.87,3.1500000000000057,0.29999999999999716,264316,374310,238758,-220879
2019-08-11,119.83,121.2,2.2900000000000063,1.4200000000000017,121.002,121.81,1.5600000000000023,-0.3299999999999983,118.954,120.0,2.049999999999997,0.9500000000000028,119.822,121.22,2.8900000000000006,-1.0,247867,375783,173329,-9940
2019-08-18,120.172,120.72,1.0600000000000023,0.6200000000000045,120.642,121.33,1.5,1.1300000000000097,119.238,119.91,1.4500000000000028,1.4500000000000028,120.0,120.99,2.1099999999999994,2.1099999999999994,240133,298497,156693,95326
2019-08-25,122.0575,122.88,1.3999999999999915,0.8999999999999915,122.6825,123.44,1.6099999999999994,1.4899999999999949,120.955,121.23,0.6000000000000085,0.4200000000000017,121.8175,122.22,0.7199999999999989,0.7199999999999989,199622,247153,64180,771
2019-09-01,121.41199999999999,122.99,2.259999999999991,0.7599999999999909,121.95,123.21,2.1299999999999955,0.4899999999999949,119.76599999999999,120.98,2.410000000000011,0.20000000000000284,120.554,121.94,2.8400000000000034,-0.5500000000000114,225743,265545,104664,-32639
2019-09-08,118.646,119.08,1.3599999999999994,-1.2600000000000051,119.046,119.7,1.980000000000004,-1.5900000000000034,116.87,117.98,2.1099999999999994,-0.25,118.134,119.11,2.6299999999999955,-2.6299999999999955,223074,270017,106686,-66103
2019-09-15,117.434,118.33,2.1299999999999955,1.4099999999999966,118.75,119.02,1.1599999999999966,1.1099999999999994,117.086,117.64,1.5799999999999983,1.5499999999999972,117.862,118.3,1.289999999999992,1.0899999999999892,296451,528359,354411,-48212
2019-09-22,119.008,119.57,0.9699999999999989,0.3500000000000085,119.466,119.68,0.37000000000000455,-0.0799999999999983,118.268,118.67,0.8299999999999983,-0.4099999999999966,118.73400000000001,119.12,0.6700000000000017,-0.060000000000002274,184576,230822,112938,32444
2019-09-29,116.658,119.29,4.290000000000006,-2.6000000000000085,117.408,119.73,4.5,-2.2900000000000063,115.532,117.5,3.719999999999999,-1.269999999999996,116.38,117.67,2.680000000000007,-1.1099999999999994,202382,241121,97630,86382
2019-10-06,116.31,116.92,1.1000000000000085,0.30999999999998806,117.354,118.0,1.1200000000000045,-0.8800000000000097,115.52,116.24,1.7299999999999898,1.2299999999999898,115.95,116.48,1.7000000000000028,1.0699999999999932,160956,221942,119494,-90031
2019-10-13,116.368,118.37,3.230000000000004,2.030000000000001,117.286,119.11,3.510000000000005,2.469999999999999,115.834,117.8,3.3999999999999915,2.75,116.57600000000001,117.9,2.719999999999999,2.719999999999999,182489,219124,76110,-39742
2019-10-20,117.43599999999999,118.03,1.5,-0.07000000000000739,118.304,118.8,0.8699999999999903,0.75,116.982,117.84,1.3400000000000034,1.2199999999999989,117.49,118.2,1.5400000000000063,1.5400000000000063,114591,134129,48779,48779
2019-10-27,115.95,119.04,8.030000000000001,-6.439999999999998,117.142,119.63,7.86999999999999,-7.36999999999999,114.158,117.77,9.36,-9.040000000000006,115.074,119.25,10.579999999999998,-9.840000000000003,353330,598773,451442,408953
2019-11-03,109.04,109.53,1.0499999999999972,-0.7299999999999898,110.254,110.93,1.1800000000000068,-0.5,108.622,108.91,0.4899999999999949,0.04999999999999716,109.026,109.49,0.9099999999999966,-0.0799999999999983,287562,386560,205074,-205074
2019-11-10,109.418,110.73,2.410000000000011,1.2800000000000011,110.326,110.95,1.6500000000000057,1.6500000000000057,109.048,109.88,1.8599999999999994,1.7199999999999989,109.722,110.47,2.25,2.1200000000000045,290832,385407,200038,166738
2019-11-17,110.798,111.65,1.5300000000000011,-0.46999999999999886,111.606,112.05,0.9899999999999949,-0.3400000000000034,110.184,110.45,0.45000000000000284,-0.28000000000000114,110.714,111.3,1.1799999999999926,0.45000000000000284,376069,961396,809742,5735
2019-11-24,112.41749999999999,112.99,1.4699999999999989,1.0,113.03999999999999,113.58,0.9299999999999926,0.06999999999999318,111.78999999999999,112.63,1.6599999999999966,0.6500000000000057,112.38,112.83,0.8199999999999932,-0.5499999999999972,187799,291029,201684,65748
2019-12-01,112.248,112.79,1.2800000000000011,0.7999999999999972,113.058,113.48,0.8200000000000074,-0.46999999999999886,111.604,111.8,0.6599999999999966,0.5499999999999972,112.23,112.71,0.9299999999999926,-0.0799999999999983,271708,322658,78916,6319
2019-12-08,113.078,114.46,2.489999999999995,1.9899999999999949,114.02799999999999,115.39,2.6200000000000045,1.8799999999999955,112.476,113.33,1.9899999999999949,1.9599999999999937,113.396,114.32,2.3799999999999955,2.3799999999999955,268429,406995,265893,-25262
2019-12-15,113.858,114.93,1.7700000000000102,0.8000000000000114,114.42,115.37,2.010000000000005,0.6200000000000045,113.234,114.23,1.8700000000000045,1.1700000000000017,114.004,115.37,2.2900000000000063,2.0200000000000102,248570,473535,329266,-104628
2019-12-22,115.0525,115.31,0.5700000000000074,-0.37000000000000455,115.4125,115.8,0.9399999999999977,0.1599999999999966,114.325,114.68,0.8800000000000097,-0.010000000000005116,115.0825,115.76,1.0300000000000011,1.0300000000000011,113869,193016,129266,129266
2019-12-29,114.67666666666666,115.72,2.9099999999999966,-2.9099999999999966,115.84,116.48,1.6400000000000006,-1.3599999999999994,113.58666666666667,115.02,2.2099999999999937,-2.2099999999999937,114.44666666666667,115.62,1.9399999999999977,-1.5799999999999983,298302,362728,141252,-89227
